##TITLE=aa_0 31 12:51:09 2026 (GMT+02:00)
##JCAMP-DX=5.01  $$ Nicolet v. 970
##DATATYPE=INFRARED SPECTRUM
##ORIGIN=Vojna akademija
##OWNER=Nicolet
##LONGDATE=2026/08/31
##TIME=12:51:46
##SPECTROMETER/DATA SYSTEM=Nicolet iS20
##DATA PROCESSING=
Ratio against background
%Transmittance->Absorbance
Truncated
ElementMultiply or ElementDivide
##COMMENTS=
Number of sample scans: 8
Collection length: 11,90 sec
Sample gain: 8,0
Background collected on: Mon Aug 31 12:50:07 2026 (GMT+02:00);
Number of background scans: 8
Background gain: 8,0
Sample spacing:  1,000
Number of scan points: 12415
Resolution points: 8286
Number of FFT points: 65536
Apodization: N-B strong;
Phase correction: Mertz;
Laser frequency: 15798,00 cm-1
Number of rejected sample scans: 0
Number of rejected background scans: 0
Bench serial number: BER2010005;
##RESOLUTION= 4,000
##XUNITS=1/CM
##YUNITS=ABSORBANCE
##FIRSTX=400.156891
##LASTX=4000.123047
##FIRSTY=0.011114
##MAXX=4000.123047
##MINX=400.156891
##MAXY=0.289691
##MINY=-0.000463
##XFACTOR=1.000000
##YFACTOR=1.000000E-009
##NPOINTS=7468
##DELTAX=0.482117
##ZPD=6100
##XYDATA=(X++(Y..Y))
400.157 11113935 8144934 6255345 5425183 5456352 6030252 6818556 7530003 
404.014 7986150 8127683 8000730 7724033 7434806 7236928 7167902 7208797 
407.871 7316345 7463086 7647848 7889066 8201826 8567393 8920787 9175302 
411.728 9243126 9084278 8732001 8289862 7887648 7637292 7580508 7677996 
415.585 7828302 7909243 7829381 7573091 7254313 7127178 7523294 8598417 
419.442 10164362 11784930 13092745 13927820 14314951 14363102 14190389 
422.816 13883721 13476295 12948254 12246354 11318111 10144453 8764153 
426.191 7270755 5807962 4533052 3611575 3175751 3280601 3887469 4854327 
430.048 5964608 6945870 7553400 7624242 7119599 6136433 4870745 3558322 
433.905 2397158 1533563 1035911 903543 1083010 1500978 2098337 2841707 
437.762 3718603 4716101 5789426 6856793 7793453 8449467 8695728 8450177 
441.619 7721909 6619646 5358154 4193345 3348412 2966693 3068957 3576596 
445.476 4341244 5198642 5988258 6593372 6969876 7146849 7207517 7241443 
449.333 7311931 7427121 7540420 7565774 7419402 7055811 6504401 5865589 
453.190 5283690 4888538 4744071 4836401 5077370 5332459 5434342 5239856 
457.047 4677683 3803763 2802320 1922078 1370995 1231879 1473017 1977694 
460.904 2596642 3158996 3516132 3581006 3349781 2913952 2431876 2087316 
464.761 2024895 2333160 3022076 4026468 5212927 6413666 7479266 8298812 
468.617 8827212 9073553 9087898 8937732 8699751 8453049 8252748 8114044 
472.474 7987196 7769738 7332789 6586880 5526920 4241156 2891904 1673241 
476.331 782070 343371 375471 770386 1341746 1883008 2248621 2396558 2370638 
480.670 2260778 2143120 2046300 1940716 1771774 1512050 1208653 994629 
484.527 1058098 1551053 2527482 3894991 5454574 6947049 8140580 8887338 
488.384 9123121 8877193 8244171 7362310 6372206 5414145 4620682 4100650 
492.241 3938422 4160493 4717642 5482357 6283986 6959236 7379767 7490458 
496.098 7307651 6910385 6406302 5905389 5492055 5207629 5058328 5023902 
499.955 5065569 5126551 5139762 5045021 4812848 4472119 4113026 3864769 
503.812 3833847 4064527 4502149 5004663 5362582 5376336 4942089 4103760 
507.669 3068223 2135428 1614571 1692267 2392693 3572019 4986295 6341609 
511.526 7378015 7943933 7997254 7603403 6887931 6007944 5111699 4329798 
515.383 3774851 3517902 3577732 3904386 4393422 4906432 5315084 5545143 
519.240 5583638 5472995 5278122 5062150 4861196 4686258 4538141 4418961 
523.097 4341545 4323708 4373942 4480589 4610468 4726619 4810536 4883378 
526.954 4997255 5210378 5541686 5950835 6338180 6587014 6600639 6353948 
530.811 5913786 5430149 5076632 4973056 5143919 5502926 5896052 6153471 
534.667 6172359 5947241 5570179 5177147 4896011 4791976 4852718 5007679 
538.524 5170039 5283556 5338061 5370700 5441053 5605353 5891920 6297736 
542.381 6793447 7336901 7879010 8364539 8735484 8926435 8879290 8561580 
546.238 7982607 7196232 6284557 5338765 4426961 3593968 2871924 2293320 
550.095 1910363 1790505 1992207 2542313 3407718 4494449 5650500 6710997 
553.952 7533306 8026549 8177414 8038127 7704404 7276719 6849792 6498683 
557.809 6274237 6210976 6319353 6579782 6935299 7299800 7572956 7662652 
561.666 7522721 7163758 6654401 6089757 5567863 5153877 4865753 4681870 
565.523 4558298 4453975 4343921 4227237 4119281 4040614 4006068 4022856 
569.380 4092990 4215928 4391313 4614453 4870511 5131379 5359899 5518598 
573.237 5580953 5540814 5413038 5229762 5025344 4831509 4669511 4549525 
577.094 4476672 4454109 4484171 4565865 4690712 4841192 4992597 5123098 
580.951 5220204 5286641 5335445 5380731 5426928 5464841 5474941 5440482 
584.808 5358825 5248475 5144255 5084208 5095506 5182043 5324073 5483666 
588.665 5622304 5707670 5722979 5669567 5562359 5425787 5289459 5185229 
592.521 5137717 5157935 5232880 5325751 5378382 5323772 5112001 4725044 
596.378 4192777 3584380 2996852 2518184 2204826 2073200 2101067 2243225 
600.235 2453635 2704520 2987911 3307578 3661862 4031116 4375281 4647440 
604.092 4807588 4844275 4779178 4662176 4549927 4488925 4502082 4584114 
607.949 4707928 4837507 4940950 4994641 4987033 4916854 4790267 4620280 
611.806 4425153 4226802 4043590 3885463 3748381 3615785 3462489 3265946 
615.663 3018272 2732527 2441672 2189673 2022865 1973633 2056754 2266673 
619.520 2580409 2960721 3358162 3721310 3997273 4145439 4149520 4025765 
623.377 3823317 3610974 3463057 3427221 3510921 3675863 3855877 3977677 
627.234 3991087 3886265 3691267 3459383 3242978 3080302 2982139 2935334 
631.091 2913318 2891704 2856482 2805422 2745465 2687116 2642343 2624509 
634.948 2651644 2744198 2917021 3169343 3474647 3779363 4008744 4094830 
638.805 3994598 3711619 3296827 2841573 2450469 2206291 2158737 2308576 
642.662 2618775 3026513 3463792 3869048 4188260 4382745 4427128 4313902 
646.519 4057403 3699789 3307110 2954616 2717723 2644877 2746332 2992882 
650.375 3329513 3693406 4031852 4317650 4547181 4734390 4897686 5052027 
654.232 5202565 5346011 5475176 5585249 5675710 5751081 5818976 5887219 
658.089 5961282 6043523 6132400 6222169 6303417 6361749 6381352 6350250 
661.946 6263715 6130988 5976298 5836842 5751921 5756386 5874422 6119160 
665.803 6492327 6979641 7542915 8088962 8474266 8568102 8349542 7928174 
669.660 7449738 7015670 6663889 6398265 6208993 6083641 6011639 5985234 
673.517 5999277 6049235 6129645 6231480 6339727 6435087 6495085 6499995 
677.374 6439492 6313368 6132198 5911468 5667754 5413944 5157364 4902579 
681.231 4656550 4433355 4258957 4165812 4186922 4344055 4635283 5030305 
685.088 5475579 5911200 6280490 6547522 6702349 6759287 6748619 6703156 
688.945 6648008 6591791 6527441 6439694 6315621 6151925 5958998 5758300 
692.802 5577294 5441959 5370365 5373351 5452863 5604581 5818204 6078030 
696.659 6363565 6648379 6905437 7109327 7243835 7306775 7313615 7294409 
700.516 7284907 7320692 7425436 7607078 7857890 8159148 8486058 8815885 
704.373 9133916 9433488 9716257 9988767 10261212 10545606 10854069 11199470 
708.229 11591016 12033158 12524414 13057676 13623629 14215346 14832555 
711.604 15483675 16182162 16938998 17757104 18627040 19529776 20443942 
714.979 21359202 22282638 23241772 24272996 25410190 26666342 28023988 
718.354 29429112 30800664 32052014 33100642 33892332 34408032 34662040 
721.729 34692864 34552452 34291088 33942168 33519536 33016834 32415628 
725.104 31697686 30856654 29905490 28878954 27822794 26784350 25805624 
728.478 24913414 24122006 23433896 22843916 22341272 21912874 21546072 
731.853 21229296 20954094 20716354 20514244 20346324 20207940 20088510 
735.228 19971892 19838204 19669158 19454400 19194762 18902226 18595120 
738.603 18292826 18008978 17749098 17511828 17292892 17087372 16890732 
741.978 16699037 16505120 16298458 16068786 15809858 15526082 15234222 
745.352 14962516 14739996 14586801 14506763 14484666 14492717 14498472 
748.727 14479288 14427322 14349677 14261192 14175154 14093687 14006075 
752.102 13891214 13728981 13508424 13234721 12928523 12620903 12346703 
755.477 12134002 12001241 11955088 11991124 12095603 12249149 12428935 
758.852 12608862 12763613 12870463 12912275 12881828 12782039 12626532 
762.227 12435890 12236505 12056800 11921337 11850779 11855206 11932031 
765.601 12064396 12225633 12382532 12501906 12561452 12551902 12479262 
768.976 12360066 12215989 12065010 11917455 11776827 11642132 11512243 
772.351 11389773 11278662 11183321 11103296 11031545 10954809 10857263 
775.726 10727030 10559763 10360864 10142587 9920793 9708633 9513680 9337569 
779.583 9177807 9031026 8896673 8777914 8680855 8613254 8580100 8582026 
783.440 8613626 8664663 8719865 8763815 8782513 8765269 8707120 8609503 
787.297 8479030 8325325 8158642 7987736 7817944 7652670 7495212 7350784 
791.154 7227765 7135733 7083124 7072784 7099357 7147960 7196771 7224699 
795.010 7214794 7161939 7073155 6966071 6862078 6781499 6738759 6740105 
798.867 6786211 6873523 6997554 7154023 7335755 7531452 7722752 7886872 
802.724 8002383 8055510 8046700 7991179 7916869 7852255 7818214 7819361 
806.581 7841796 7858092 7838861 7767579 7648016 7508022 7389979 7340945 
810.438 7391968 7547466 7779622 8038903 8264736 8403860 8430548 8350860 
814.295 8203177 8042008 7925912 7895544 7962560 8107596 8288207 8451561 
818.152 8549043 8553538 8463623 8302359 8106583 7916262 7760530 7649770 
822.009 7574911 7514731 7446974 7357794 7249428 7138798 7051366 7007386 
825.866 7013953 7058438 7113200 7143278 7120643 7035437 6900959 6750201 
829.723 6625601 6569522 6609487 6755282 6998665 7319175 7687777 8072017 
833.580 8440751 8759995 8996385 9120009 9107624 8953596 8674331 8311984 
837.437 7923686 7571337 7306640 7154798 7112560 7149745 7223452 7289186 
841.294 7317929 7303911 7262736 7224059 7217456 7262837 7360457 7490863 
845.151 7618071 7706360 7725687 7664911 7534621 7365815 7200476 7078307 
849.008 7028264 7057528 7152878 7284738 7420582 7534486 7616115 7672769 
852.865 7726024 7800638 7913090 8065366 8241772 8414603 8550969 8625455 
856.721 8625489 8554146 8426257 8263521 8089401 7923281 7780161 7671319 
860.578 7603100 7578350 7595176 7646701 7719952 7799288 7869563 7919636 
864.435 7947205 7958207 7965834 7983821 8023512 8088928 8174577 8266323 
868.292 8345016 8389638 8379774 8301480 8150032 7933235 7673545 7407909 
872.149 7182555 7041768 7021428 7135666 7372724 7692026 8036911 8347313 
876.006 8573138 8689136 8697418 8623190 8501262 8367310 8245791 8144361 
879.863 8058109 7975114 7885523 7786065 7680492 7578216 7490324 7425031 
883.720 7388024 7384856 7421223 7503639 7636854 7817843 8031984 8252613 
887.577 8446798 8582026 8639347 8619202 8544210 8450515 8378896 8360351 
891.434 8404468 8498728 8613389 8713813 8770442 8769664 8716146 8628598 
895.291 8530390 8439602 8363189 8295637 8221174 8121167 7983045 7803776 
899.148 7592782 7371173 7167868 7012909 6931629 6940147 7040152 7219107 
903.005 7451221 7705112 7947240 8149154 8294523 8379335 8412069 8408251 
906.862 8387003 8363526 8346806 8340659 8344611 8357885 8382882 8423994 
910.719 8486396 8571482 8673958 8778894 8865356 8912467 8904587 8839995 
914.575 8732103 8608320 8500452 8437913 8438014 8501060 8611158 8742786 
918.432 8871715 8980622 9065128 9132055 9193881 9260659 9334047 9405452 
922.289 9460612 9484487 9469111 9417675 9344204 9267361 9203561 9160920 
926.146 9137029 9122039 9104782 9078932 9047332 9021317 9014281 9036303 
930.003 9087628 9157942 9229181 9283168 9309200 9308455 9293493 9282627 
933.860 9292274 9328056 9381277 9430136 9449911 9419504 9333473 9204712 
937.717 9063843 8949164 8894238 8919400 9023549 9185759 9372236 9551953 
941.574 9705449 9833273 9953643 10096497 10289574 10546082 10857772 11195730 
945.431 11519354 11784794 11962411 12041947 12036292 11974536 11895149 
948.806 11833651 11813393 11843628 11918851 12024608 12140919 12248161 
952.181 12332283 12384032 12401454 12389624 12359555 12325704 12303616 
955.555 12306002 12338180 12397601 12473534 12551391 12615377 12655390 
958.930 12668184 12657950 12633626 12604360 12576765 12552380 12528813 
962.305 12501667 12468283 12429514 12390851 12360475 12348032 12360543 
965.680 12400874 12466237 12549276 12639050 12723897 12794836 12846231 
969.055 12876743 12888758 12886129 12872306 12848245 12811489 12758461 
972.429 12684900 12589488 12475171 12349396 12222635 12104666 12003454 
975.804 11922155 11860142 11813461 11776895 11745608 11715346 11682942 
979.179 11645774 11601497 11548242 11485024 11411306 11327157 11232723 
982.554 11127600 11011356 10884849 10751281 10616870 10491156 10383431 
985.929 10300974 10245198 10211783 10191091 10171892 10145776 10108332 
989.304 10060109 10004329 9943676 9876963 9800161 9707583 9596833 9471957 
993.160 9346066 9237474 9167586 9153542 9203188 9313668 9471448 9656795 
997.017 9846221 10018876 10158800 10254697 10301246 10296564 10242043 
1000.392 10141808 10002160 9831680 9639991 9437991 9236729 9047299 8881319 
1004.249 8748871 8657734 8610787 8604703 8629410 8669260 8708371 8732982 
1008.106 8737072 8723753 8704720 8694849 8705937 8741299 8792825 8841618 
1011.963 8863666 8839927 8762293 8639752 8495688 8364539 8279427 8262034 
1015.820 8316071 8425109 8557457 8674026 8742549 8744105 8677745 8558843 
1019.677 8414873 8276860 8170189 8112424 8109858 8157933 8243630 8347752 
1023.534 8447102 8516502 8535897 8491802 8382207 8218202 8022330 7823949 
1027.391 7650174 7521136 7443435 7411718 7411954 7429548 7454963 7486042 
1031.249 7527170 7583847 7656447 7737053 7808363 7848307 7838085 7767950 
1035.106 7642756 7480379 7309336 7158403 7051063 7000248 7006612 7059448 
1038.964 7142537 7239624 7336732 7425436 7501280 7560885 7600368 7614497 
1042.821 7597974 7549928 7476368 7391496 7314323 7263444 7251180 7277292 
1046.678 7328375 7383677 7423110 7435177 7423279 7402921 7396450 7421054 
1050.536 7480008 7559773 7636146 7682010 7680222 7632065 7557278 7485773 
1054.393 7446873 7457659 7516619 7605056 7694083 7757865 7780702 7761778 
1058.251 7712769 7653041 7600604 7565032 7546185 7534385 7514697 7470704 
1062.108 7391125 7272642 7122024 6955432 6795904 6668566 6593238 6579142 
1065.965 6622069 6705714 6806102 6900521 6974994 7025974 7061267 7094170 
1069.823 7139337 7206641 7301350 7423750 7571270 7738301 7914845 8085552 
1073.680 8227252 8315429 8330188 8263858 8127244 7949028 7768592 7621207 
1077.538 7529092 7492717 7495650 7512404 7523159 7522653 7521035 7536071 
1081.395 7581486 7655401 7738739 7799322 7804753 7738470 7607112 7441345 
1085.253 7283424 7177839 7152710 7214221 7346302 7519147 7697085 7848038 
1089.110 7952403 8001034 7996511 7947712 7868011 7770953 7668587 7570865 
1092.967 7485031 7416571 7371544 7357659 7383778 7457457 7579733 7739650 
1096.825 7913124 8066851 8164550 8178089 8097064 7931480 7709025 7465210 
1100.682 7234469 7038367 6884565 6769148 6684549 6624659 6588090 6578200 
1104.540 6598284 6648311 6723986 6818421 6924862 7039781 7161265 7286322 
1108.397 7408381 7514056 7587151 7612474 7583341 7505123 7397124 7286390 
1112.255 7199196 7155943 7164364 7220353 7311695 7423515 7541735 7655536 
1116.112 7758809 7847666 7920412 7976870 8017875 8044978 8058886 8059459 
1119.969 8044473 8012678 7965564 7909851 7859138 7831169 7840649 7894937 
1123.827 7988074 8101587 8208444 8281689 8304284 8272132 8196052 8096962 
1127.684 7999785 7924529 7884848 7885388 7923921 7992428 8078666 8168467 
1131.542 8245521 8295806 8312423 8297596 8264838 8236336 8237552 8286147 
1135.399 8388286 8535425 8708472 8884464 9046182 9186571 9310384 9429527 
1139.256 9556762 9700739 9862931 10038000 10217143 10391202 10550868 
1142.632 10687092 10790443 10850672 10860320 10818467 10734605 10629399 
1146.007 10531111 10470077 10467396 10530669 10650451 10805015 10963713 
1149.382 11096837 11182946 11210078 11179376 11101256 10994772 10881894 
1152.757 10784974 10722513 10704548 10730528 10789391 10863955 10934354 
1156.133 10985257 11010202 11011391 10997253 10977917 10960553 10946995 
1159.508 10935203 10922087 10906322 10890795 10880637 10880467 10891883 
1162.883 10911691 10933607 10950019 10955489 10947810 10927932 10897591 
1166.258 10858282 10810213 10752809 10686515 10613271 10536169 10457688 
1169.634 10378476 10297175 10212461 10125969 10044273 9978901 9941099 
1173.009 9936998 9961847 9999515 10024708 10012128 9946422 9826359 9667298 
1176.866 9494138 9335368 9211616 9132597 9095985 9091992 9107117 9128502 
1180.724 9146606 9153915 9144677 9115339 9065669 9000174 8928735 8864715 
1184.581 8819469 8798505 8797964 8805707 8805403 8782106 8728283 8645532 
1188.439 8543535 8435277 8334107 8250654 8191798 8162929 8167825 8207735 
1192.296 8279798 8374978 8478455 8571752 8639650 8674128 8677846 8662297 
1196.153 8642828 8629984 8624543 8615924 8587332 8522889 8416224 8274867 
1200.011 8120020 7979940 7879685 7836230 7851783 7915959 8008695 8108136 
1203.868 8195410 8257205 8288747 8291281 8270477 8234546 8192304 8152025 
1207.726 8119715 8099663 8093992 8103714 8130755 8177279 8245791 8337315 
1211.583 8449095 8573442 8697385 8806553 8888252 8936514 8953697 8951430 
1215.441 8944835 8948150 8970203 9011270 9063605 9115609 9156690 9180446 
1219.298 9187823 9185658 9184913 9197334 9231719 9293967 9384967 9501996 
1223.155 9639145 9788435 9940523 10085882 10216532 10326694 10414856 
1226.531 10483383 10538409 10587772 10638261 10694122 10755866 10819215 
1229.906 10876118 10918316 10937990 10931160 10899425 10849143 10789968 
1233.281 10731106 10679723 10636937 10599350 10559729 10510912 10449136 
1236.656 10375252 10294868 10215854 10145131 10085611 10035931 9991412 
1240.032 9946219 9896114 9839882 9779150 9717613 9659573 9609401 9570920 
1243.889 9547515 9540673 9549886 9570750 9594124 9608283 9602355 9570040 
1247.746 9512935 9442123 9375555 9331136 9320946 9346710 9398104 9456684 
1251.604 9501792 9518794 9502436 9459359 9403521 9352431 9320201 9313330 
1255.461 9330560 9363434 9400169 9428883 9443037 9441852 9431558 9423228 
1259.319 9430136 9462001 9520521 9596935 9673769 9730149 9748752 9723609 
1263.176 9662487 9585655 9516491 9474869 9468333 9489872 9521910 9545619 
1267.034 9549005 9533290 9511275 9501996 9521334 9574409 9651239 9730794 
1270.891 9790062 9810837 9788503 9732691 9664249 9605878 9574748 9580133 
1274.748 9620919 9689320 9774507 9866795 9958559 10044307 10119932 10181899 
1278.606 10226947 10254290 10265859 10267624 10267284 10273086 10290389 
1281.981 10320417 10359235 10400603 10437324 10464680 10482059 10493804 
1285.356 10507043 10529922 10569099 10627056 10701525 10785892 10872313 
1288.732 10953791 11027127 11092860 11154898 11218102 11285055 11355046 
1292.107 11424299 11487848 11541913 11586729 11626136 11667216 11716197 
1295.482 11776554 11847476 11924879 12004510 12084872 12168928 12263021 
1298.857 12373259 12501735 12642667 12783814 12908077 12998984 13046988 
1302.233 13051257 13020868 12969795 12914186 12866504 12833296 12815244 
1305.608 12808691 12807599 12804903 12794665 12772349 12735702 12685481 
1308.983 12626327 12565715 12512171 12473909 12455326 12456007 12469886 
1312.358 12487208 12497643 12491266 12462452 12408750 12330511 12228803 
1315.734 12106200 11966464 11815538 11662588 11518232 11392223 11290700 
1319.109 11214838 11160372 11121414 11092860 11072398 11061284 11062541 
1322.484 11078652 11110196 11154626 11207154 11262510 11316309 11365114 
1325.859 11407631 11442499 11468592 11486590 11499382 11514693 11543614 
1329.234 11600000 11696080 11837670 12021950 12237459 12467464 12693292 
1332.610 12902001 13088203 13254603 13408730 13559493 13713079 13871645 
1335.985 14034547 14200248 14370088 14548425 14741195 14952262 15178460 
1339.360 15407557 15621214 15800821 15936570 16029386 16089315 16129822 
1342.735 16165208 16206719 16260928 16331656 16420014 16526803 16652796 
1346.111 16799972 16970142 17163716 17378206 17607258 17840678 18067004 
1349.486 18274786 18455806 18606602 18728354 18826338 18908248 18982766 
1352.861 19057472 19138732 19231370 19339544 19467708 19621768 19808066 
1356.236 20033650 20304102 20622566 20989390 21403824 21866076 22381180 
1359.612 22963476 23639154 24446120 25424314 26604054 27982674 29509750 
1362.987 31089654 32611032 33983836 35152960 36098524 36815596 37300296 
1366.362 37550036 37572220 37399852 37097788 36768172 36524792 36461180 
1369.737 36643344 37099088 37837444 38870040 40226744 41957420 44112304 
1373.113 46704204 49655220 52769436 55778752 58411456 60487220 61933648 
1376.488 62737660 62901772 62414668 61261772 59460732 57093488 54311904 
1379.863 51291152 48202768 45173732 42278180 39564520 37064804 34801912 
1383.238 32788336 31013208 29440316 28012466 26667820 25354056 24045620 
1386.614 22756056 21529046 20416054 19450868 18637522 17958696 17392000 
1389.989 16917948 16520711 16184639 15889002 15608025 15312299 14977298 
1393.364 14592009 14166220 13731546 13327235 12984577 12711238 12495699 
1396.739 12319329 12169302 12041912 11938979 11860654 11799705 11742477 
1400.115 11677563 11600851 11518742 11442533 11382937 11343312 11317261 
1403.490 11289272 11242175 11165540 11063629 10953484 10857671 10791496 
1406.865 10758073 10751043 10760485 10780015 10808107 10847479 10900003 
1410.240 10962048 11024407 11074675 11104316 11114615 11115703 11122977 
1413.616 11147861 11194608 11258395 11329640 11399978 11468966 11545656 
1416.991 11646523 11786155 11967077 12171381 12367225 12528336 12653548 
1420.366 12763170 12884627 13037053 13227241 13454114 13711882 13995809 
1423.741 14304508 14640155 15004736 15397429 15813259 16247340 16699106 
1427.117 17175918 17691976 18265456 18912054 19637438 20434844 21290050 
1430.492 22189034 23123988 24092444 25091078 26112174 27141250 28166016 
1433.867 29185094 30212960 31287492 32461722 33782908 35245448 36771956 
1437.242 38244908 39576172 40748896 41803620 42801744 43803524 44852476 
1440.618 45971332 47160624 48405852 49686164 50982000 52282908 53585584 
1443.993 54890644 56201220 57521888 58863584 60245676 61695112 63235016 
1447.368 64871340 66584572 68334096 70083024 71823584 73580800 75403928 
1450.743 77342336 79422216 81626880 83896808 86156168 88329336 90379768 
1454.119 92314000 94166176 95979360 97773144 99510232 101072272 102317888 
1457.494 103191544 103755576 104133328 104403016 104588720 104690744 
1460.387 104711832 104662624 104555504 104391720 104149336 103775608 
1463.280 103194696 102323752 101109360 99555392 97704504 95592280 93213864 
1466.655 90518344 87463200 84048896 80340416 76431624 72429832 68406776 
1470.030 64344400 60153528 55699264 50904724 45886288 41023132 36797708 
1473.406 33494230 31076626 29294644 27862042 26586794 25379698 24238904 
1476.781 23199932 22294114 21519924 20845968 20229114 19631752 19032648 
1480.156 18427802 17825868 17241246 16685884 16167099 15688816 15254915 
1483.531 14871025 14542668 14270985 14048852 13859261 13679841 13489523 
1486.907 13273734 13028619 12756379 12457951 12129981 11767874 11378004 
1490.282 10986514 10629739 10336772 10115963 9957407 9839611 9739942 9638636 
1494.139 9524619 9395903 9258797 9123460 8996994 8877159 8754483 8620993 
1497.997 8481091 8350184 8248864 8189806 8171066 8176773 8185078 8176874 
1501.854 8142807 8084945 8013926 7943156 7882418 7836736 7804045 7777497 
1505.712 7751726 7732837 7741235 7791024 7864536 7925035 7946868 7926385 
1509.569 7873409 7805968 7743394 7702886 7692768 7710576 7744912 7781815 
1513.426 7808768 7819260 7811433 7784783 7737188 7663967 7560548 7428570 
1517.284 7278640 7127077 6986981 6865040 6762148 6675531 6602119 6540862 
1521.141 6493134 6459300 6433002 6403208 6356134 6281297 6173132 6032134 
1524.999 5866194 5690179 5524403 5385025 5278995 5202934 5148580 5108983 
1528.856 5081426 5066709 5065737 5076666 5093763 5107005 5104290 5073883 
1532.714 5009489 4916352 4811574 4713890 4632370 4564961 4505531 4449590 
1536.571 4397037 4352589 4323674 4317751 4337161 4370863 4389907 4364839 
1540.428 4291247 4199769 4128681 4101385 4119549 4174443 4254406 4348038 
1544.286 4445171 4535295 4608626 4658860 4683478 4684348 4666899 4638431 
1548.143 4606751 4580063 4562717 4553509 4544268 4524614 4487251 4430476 
1552.001 4358346 4278063 4199099 4129684 4075965 4039979 4020314 4014395 
1555.858 4021919 4045296 4089144 4156646 4242762 4321465 4353326 4325649 
1559.715 4279636 4257283 4271939 4316077 4377155 4442861 4502953 4549558 
1563.573 4576044 4580665 4565697 4538777 4508912 4483502 4466595 4457791 
1567.430 4454276 4450694 4441757 4422576 4392150 4355233 4320394 4293957 
1571.288 4278498 4272575 4272341 4273780 4272642 4265281 4248550 4220411 
1575.145 4180967 4134100 4087973 4051584 4031083 4026334 4033457 4046768 
1579.003 4059912 4065330 4055865 4025498 3971993 3898869 3814994 3732940 
1582.860 3664468 3617356 3594135 3592398 3606865 3631355 3661394 3694409 
1586.717 3728161 3759744 3783842 3793970 3784210 3752859 3704033 3647894 
1590.575 3598546 3568578 3566707 3594570 3647828 3716966 3791797 3864602 
1594.432 3930698 3989549 4041985 4089110 4130754 4166348 4195453 4218203 
1598.290 4236338 4252030 4266652 4280539 4292084 4297906 4294928 4280974 
1602.147 4256949 4227438 4199401 4180231 4176283 4188896 4214891 4246509 
1606.005 4274181 4287934 4281442 4254038 4211311 4162802 4118478 4084026 
1609.862 4058540 4035731 4006771 3965372 3909200 3842204 3770974 3703732 
1613.719 3646190 3600584 3565104 3533502 3496725 3444587 3374324 3291218 
1617.577 3206826 3131361 3069758 3022176 2986343 2959587 2939605 2925027 
1621.434 2915453 2911050 2913285 2923759 2943074 2970496 3004092 3041528 
1625.292 3080002 3116010 3144945 3160264 3154857 3123419 3066054 2989212 
1629.149 2904979 2827666 2769106 2737162 2734228 2756902 2796351 2840006 
1633.006 2873125 2879529 2846442 2768473 2657879 2546046 2471895 2455534 
1636.864 2486124 2537580 2587942 2626842 2651778 2664746 2668913 2666513 
1640.721 2659179 2647844 2634310 2621776 2613875 2613775 2622109 2635576 
1644.579 2645210 2638576 2601842 2529448 2434575 2349550 2304878 2309242 
1648.436 2349317 2403821 2455034 2491190 2506286 2496488 2458200 2387596 
1652.294 2286325 2170925 2076895 2030821 2026859 2043271 2066608 2092077 
1656.151 2119513 2150279 2185277 2224408 2266540 2309275 2348684 2380833 
1660.008 2402122 2410152 2405854 2393526 2381232 2377834 2388129 2409652 
1663.866 2434342 2452202 2457133 2447437 2425046 2395292 2364175 2338057 
1667.723 2321567 2315371 2314938 2312307 2299249 2272835 2237031 2198631 
1671.581 2163466 2134696 2113353 2098037 2087882 2081290 2076729 2073600 
1675.438 2071602 2072035 2077794 2092344 2118280 2158105 2211586 2275267 
1679.296 2340888 2397491 2434675 2446571 2434175 2404088 2367173 2335958 
1683.153 2324399 2342721 2386830 2435708 2469329 2482126 2478260 2464164 
1687.010 2444005 2420348 2394426 2367840 2343220 2323399 2311441 2309342 
1690.868 2317936 2336991 2366973 2407786 2461065 2529148 2614708 2717957 
1694.725 2834736 2951781 3048936 3110970 3137435 3140673 3134332 3127256 
1698.583 3120281 3109168 3087744 3053874 3015036 2983407 2964858 2958686 
1702.440 2960121 2965625 2974800 2990847 3020274 3070926 3145479 3238538 
1706.297 3336525 3424315 3490512 3530963 3546830 3542955 3526153 3502136 
1710.155 3475281 3447593 3418371 3385377 3346342 3298596 3240274 3170911 
1714.012 3090280 2999088 2897607 2785913 2664146 2534614 2404055 2285092 
1717.870 2191738 2131100 2100501 2091145 2094807 2107226 2128669 2161634 
1721.727 2209421 2273668 2352148 2438007 2521516 2593909 2650811 2692984 
1725.585 2725225 2753667 2782879 2813859 2843574 2865754 2872791 2858983 
1729.442 2823063 2769207 2707121 2647311 2599175 2571376 2572210 2612742 
1733.299 2704253 2846276 3016837 3180257 3311350 3404445 3466430 3506678 
1737.157 3532332 3547432 3553512 3549336 3531631 3496591 3441582 3367211 
1741.014 3277396 3179523 3083373 3000823 2943174 2917221 2922492 2951080 
1744.872 2988979 3020508 3033153 3018973 2976668 2911784 2836504 2765838 
1748.729 2711622 2679015 2662346 2647344 2616575 2558744 2474628 2375802 
1752.587 2277232 2192238 2127037 2080658 2047066 2016939 1980590 1930964 
1756.444 1867667 1797093 1729623 1673041 1629171 1594949 1564953 1534494 
1760.301 1502042 1469226 1440004 1417033 1399016 1380667 1356170 1322834 
1764.159 1282289 1240253 1204467 1183004 1181243 1201277 1239987 1290431 
1768.016 1343773 1393498 1437245 1475211 1507395 1530836 1537287 1516771 
1771.874 1462810 1380833 1289102 1209484 1156691 1135528 1143502 1173933 
1775.731 1218854 1268831 1315556 1352082 1373654 1377543 1364015 1335431 
1779.589 1296712 1255904 1221446 1199151 1190844 1194034 1203836 1214900 
1783.446 1223107 1225566 1221479 1210581 1193702 1171342 1143668 1110381 
1787.303 1071816 1029135 984699 942193 906332 883522 880268 901883 949465 
1791.643 1016448 1087926 1146425 1180744 1189084 1177455 1154897 1129781 
1795.500 1106395 1085434 1064143 1039464 1009872 977293 947274 927815 924329 
1799.840 937412 960490 981876 990743 981909 958498 929509 905535 893051 
1804.180 893284 902149 913703 923034 929409 935851 947739 967796 993234 
1808.519 1013957 1015552 983670 911213 802518 676062 558999 476165 444090 
1812.859 465484 531596 625922 730656 829075 907229 957070 975633 965803 
1817.198 934025 888834 837773 785954 736066 689967 650178 620845 607340 
1821.538 613611 639560 679016 718276 738389 722292 661262 563312 450757 
1825.878 354844 299668 297413 348511 444521 573497 719438 864731 990843 
1830.217 1080751 1125429 1124200 1083973 1015817 935618 860049 804477 780112 
1834.557 787116 813240 836711 835250 793024 709482 598415 484225 391091 
1838.896 333323 312334 319595 342708 372055 405484 447705 508242 595694 
1843.236 710975 844280 976928 1089520 1171275 1222775 1249723 1256502 
1847.093 1242945 1203005 1129781 1019404 875919 711506 545032 396464 281962 
1851.433 212640 192253 216916 273839 343735 404556 435666 424787 370662 
1855.773 283985 183535 94508 39232 30716 70316 147869 247581 350898 442830 
1860.594 512355 553857 565900 550440 512521 459613 402234 353717 326194 
1864.934 329278 366219 432083 513748 593604 652236 674768 657943 613479 
1869.274 565070 536373 543705 591016 671151 768395 863834 938275 976795 
1873.613 973342 934058 875222 817323 780477 774635 796576 831996 861477 
1877.953 870707 854571 819714 779979 749575 733743 726773 714061 680841 
1882.292 619949 538629 456462 402400 401670 467076 594135 765673 956206 
1886.632 1139781 1295483 1405997 1457923 1442697 1357633 1211013 1022526 
1890.489 821739 639294 497228 406148 363665 358028 373581 397027 420939 
1894.829 444521 472251 508009 551136 596125 634416 660233 673806 682069 
1899.169 696538 728831 785224 864631 958099 1051455 1129748 1178983 1187655 
1903.508 1149980 1064043 933825 770054 592310 424157 290782 211778 192518 
1907.848 223181 280736 337402 369568 366782 333688 286803 244133 218209 
1912.187 213203 225635 248410 276027 305835 337833 372520 408635 441569 
1916.527 466910 482567 493447 511692 552563 628377 742505 890495 1062615 
1920.867 1248161 1434552 1608484 1756869 1863607 1914124 1896619 1804279 
1924.724 1639015 1413509 1153501 894014 677224 542013 512554 593471 764644 
1929.064 988219 1211445 1383725 1468828 1452404 1343806 1174332 987987 
1932.921 826054 722790 693120 730590 813572 913239 1003662 1067498 1099651 
1937.261 1103372 1090317 1073709 1065339 1076566 1115430 1188353 1298607 
1941.118 1442796 1608119 1773204 1913492 2007718 2046267 2030787 1971703 
1944.975 1882176 1772439 1649592 1517004 1376246 1231115 1087793 954015 
1948.833 837275 742870 674768 638697 644935 709581 850189 1080153 1395858 
1953.172 1774468 2169127 2517584 2760270 2846709 2753001 2491190 2108059 
1957.030 1669715 1256236 942725 783995 812975 1031161 1407659 1879713 
1960.887 2367307 2792016 3088845 3222915 3187400 3004526 2710221 2347584 
1964.745 1957690 1570507 1210282 899459 659503 512289 471985 536572 684691 
1969.084 886444 1110447 1333104 1542641 1731420 1890396 2002792 2040575 
1972.942 1974965 1790871 1498152 1142605 801124 570346 530634 723786 1133203 
1977.281 1696757 2321867 2912251 3400237 3751389 3966843 4074762 4112223 
1981.139 4108410 4078842 4023725 3928559 3773213 3537210 3207260 2782712 
1984.996 2278164 1721939 1160112 645068 222087 -79216 -257077 -336246 
1988.854 -356111 -354853 -360083 -381404 -414607 -446715 -463231 -456711 
1992.711 -424537 -362964 -266448 -120756 91525 387178 774568 1248826 1785647 
1997.051 2340322 2856582 3267982 3516399 3568946 3424382 3119747 2721824 
2000.908 2320468 2003957 1842311 1866835 2064577 2378501 2724859 3021876 
2004.766 3198615 3213636 3062116 2771807 2390395 1973567 1577357 1244573 
2008.623 1009474 895641 909387 1040826 1263780 1543638 1845172 2141788 
2012.480 2420647 2678848 2913518 3112005 3246015 3273858 3149117 2841506 
2016.338 2353847 1735079 1081017 502403 103191 -53011 44666 357597 811912 
2020.677 1310571 1745924 2028956 2097504 1933493 1565319 1061253 519156 
2024.535 40226 -287508 -414507 -337537 -95349 255505 662423 1086730 1514078 
2028.874 1943678 2373370 2788514 3149951 3399670 3478220 3339263 2974333 
2032.732 2424412 1779093 1147654 637635 328714 250598 387343 677688 1039763 
2037.071 1387781 1658107 1822246 1888565 1889730 1865371 1850596 1858050 
2040.929 1878049 1887667 1866902 1809669 1735478 1678030 1677032 1758167 
2044.786 1918251 2122409 2315804 2437307 2436941 2293986 2017871 1647330 
2048.644 1233076 827083 470194 186684 -10138 -115224 -128640 -55694 93680 
2052.983 302917 548217 805207 1049429 1259593 1422884 1532000 1585205 
2056.841 1584939 1537354 1452903 1347695 1244606 1166923 1135063 1159149 
2060.698 1233208 1337093 1439239 1508193 1520396 1470556 1371925 1256934 
2064.555 1163800 1123038 1150013 1236697 1356736 1473848 1558968 1596512 
2068.413 1593885 1572635 1563590 1591191 1661466 1758499 1849432 1894622 
2072.270 1859780 1730721 1513480 1234239 927815 629273 364461 146410 -22895 
2076.610 -146593 -228200 -269859 -272143 -236843 -170408 -80872 21769 129507 
2080.949 240122 356071 482003 623433 781871 952985 1128253 1294153 1435017 
2085.289 1536057 1584307 1574065 1508160 1399847 1269396 1143834 1048133 
2089.146 997717 995725 1031161 1081814 1123768 1139216 1121642 1077894 
2093.004 1022127 970917 937246 925823 934722 958332 990942 1027309 1063744 
2097.344 1094403 1111112 1106162 1074905 1020101 953583 893450 859219 863004 
2101.683 906863 982673 1077496 1178983 1281558 1386185 1493996 1602931 
2105.541 1701048 1769112 1787743 1746523 1649193 1515840 1377476 1262882 
2109.398 1188585 1154033 1142438 1131774 1104601 1057234 1002964 967331 
2113.255 974570 1043417 1175794 1357234 1559766 1748619 1890196 1957124 
2117.113 1934592 1822246 1635723 1400944 1150146 914932 715323 557971 435666 
2121.452 334484 242144 159934 103125 98253 170010 328250 559430 829639 
2125.792 1092011 1304123 1444359 1514311 1537121 1543139 1557604 1590260 
2129.649 1635157 1675902 1698820 1697955 1677398 1644237 1601733 1543572 
2133.507 1458455 1338987 1192107 1044347 937578 907528 968792 1098157 
2137.364 1240951 1326557 1292093 1108853 794120 406579 22896 -278435 -444332 
2141.704 -456810 -327009 -87233 221657 556743 881464 1163235 1376911 1504935 
2146.043 1540246 1490704 1376246 1227128 1075237 944883 854405 816394 842188 
2150.383 945647 1140977 1432358 1805743 2224641 2627142 2943141 3114441 
2154.240 3111872 2952014 2696551 2440506 2276466 2269071 2427478 2699852 
2158.098 2981072 3148549 3115810 2860184 2432476 1933294 1483523 1174000 
2161.955 1048333 1088823 1226596 1367804 1424579 1349357 1148451 880899 
2165.813 631297 488935 508706 694779 1004957 1367638 1707568 1964413 2111222 
2170.152 2149580 2105262 2007086 1880512 1739304 1585804 1421155 1252581 
2174.010 1095267 975301 921706 958099 1096396 1333237 1645468 1992107 
2177.867 2324032 2586376 2732594 2737862 2600508 2349150 2035348 1727162 
2181.725 1488310 1364613 1373188 1502474 1717515 1969839 2214717 2411884 
2185.582 2533081 2565677 2507953 2367740 2162100 1914656 1650922 1398617 
2189.439 1184000 1025615 937212 926919 997518 1147156 1367073 1637219 
2193.297 1925373 2187142 2375036 2444071 2366474 2135329 1773271 1323333 
2197.154 845807 404954 51427 -177959 -267011 -218629 -52348 203755 515672 
2201.494 847467 1171209 1463741 1709797 1901744 2034582 2106727 2120112 
2205.351 2078494 1990909 1870462 1732983 1594251 1465935 1353312 1256535 
2209.209 1174232 1107524 1064143 1057965 1102209 1201543 1344571 1501011 
2213.066 1632330 1699119 1680126 1580350 1432591 1282954 1180711 1155528 
2216.924 1207590 1308112 1410551 1469326 1454731 1365045 1225599 1082544 
2220.781 982839 960889 1029799 1176923 1368901 1563291 1723469 1824775 
2224.638 1865138 1859315 1835190 1821015 1835623 1882076 1948670 2011979 
2228.496 2048364 2043271 1994803 1913891 1817222 1720475 1632164 1552184 
2232.353 1476640 1404002 1340682 1301033 1301332 1352348 1449512 1574364 
2236.211 1696458 1786080 1825707 1815858 1774302 1726762 1696924 1694429 
2240.068 1711161 1725631 1712259 1651588 1537487 1377908 1192838 1005821 
2243.926 836013 699027 602098 546790 529970 544136 576251 608833 623400 
2248.265 604619 545894 451951 340254 236674 165403 146709 188407 285709 
2252.605 421968 575289 720965 835914 904938 919879 883456 807829 712900 
2256.944 621542 553492 521511 527283 563611 618091 680675 747882 823531 
2261.284 916127 1032257 1169947 1317949 1455330 1558901 1611843 1606822 
2265.141 1547562 1446852 1319544 1175893 1022028 859983 692689 528743 383894 
2269.481 276193 223314 234884 308753 431453 582887 739617 881862 995559 
2273.821 1074108 1117324 1129914 1120480 1100814 1083275 1081349 1104833 
2277.678 1157455 1235103 1327354 1418595 1492898 1540313 1558203 1553082 
2281.535 1536888 1524452 1527046 1549191 1586868 1629503 1662397 1669914 
2285.393 1641410 1572868 1467597 1336029 1193469 1057134 942094 860946 
2289.250 820444 821805 861444 931933 1022858 1121941 1216827 1296579 1352946 
2293.590 1382761 1387980 1375814 1354608 1333270 1316653 1304256 1290996 
2297.447 1269495 1233441 1181575 1118918 1056337 1009009 990577 1010437 
2301.305 1070819 1165694 1281592 1401841 1509224 1588763 1633129 1641610 
2305.162 1622053 1587666 1553714 1533796 1534959 1556108 1588298 1618096 
2309.020 1631100 1617564 1575062 1508326 1427937 1346598 1276042 1224204 
2312.877 1194732 1187522 1199350 1224902 1256702 1286011 1303991 1303924 
2316.734 1284350 1250953 1214435 1190546 1193802 1232444 1305918 1404933 
2320.592 1514843 1621022 1713124 1786512 1841812 1879980 1900645 1900945 
2324.449 1877118 1826971 1753210 1663362 1568811 1481162 1409088 1356636 
2328.307 1324031 1309806 1314260 1340981 1395825 1483090 1602332 1743396 
2332.164 1888632 2017738 2110556 2155440 2150679 2104729 2034150 1958422 
2336.021 1896885 1862043 1859547 1884738 1926305 1967775 1992306 1987913 
2339.879 1951566 1889397 1815692 1748153 1701614 1682654 1689439 1711161 
2343.736 1734547 1748685 1748419 1735212 1714620 1691402 1668318 1644603 
2347.594 1619426 1592854 1567713 1549391 1544968 1560032 1597310 1653151 
2351.451 1718612 1778993 1819352 1828535 1802549 1746357 1671345 1595016 
2355.309 1536722 1514311 1541144 1621555 1747521 1898615 2047366 2164665 
2359.166 2230969 2243692 2217847 2180049 2156739 2163499 2198831 2245390 
2363.023 2277998 2278431 2241727 2179317 2113086 2066841 2054124 2075697 
2366.881 2119746 2169726 2211353 2237730 2249920 2254350 2257347 2262043 
2370.738 2267539 2270204 2266074 2252118 2226440 2187742 2134762 2066375 
2374.596 1983519 1889830 1791669 1696558 1611411 1538817 1477073 1421388 
2378.453 1366940 1311468 1257765 1211577 1179880 1166890 1171508 1187290 
2382.311 1205298 1216595 1216362 1204733 1185961 1165096 1145561 1127256 
2386.168 1107458 1083475 1055573 1028637 1011699 1014522 1042786 1095798 
2390.025 1163966 1233076 1286942 1312930 1306350 1270359 1213937 1148618 
2393.883 1085733 1032357 993101 969357 961453 969357 992038 1026877 1068959 
2398.222 1111112 1145694 1165428 1166425 1148950 1117756 1080485 1046174 
2402.080 1023688 1019205 1035412 1070852 1120745 1176359 1228091 1266704 
2405.937 1285280 1281758 1259161 1224835 1188452 1158817 1141475 1137322 
2409.795 1142073 1148551 1149947 1140644 1119051 1086165 1045343 999477 
2413.652 950993 901053 850787 802916 762685 737029 733842 758636 812410 
2417.992 890295 981478 1073177 1152172 1209019 1240884 1250188 1243310 
2421.849 1228224 1211478 1196294 1182837 1169581 1155129 1139482 1124400 
2425.707 1111776 1103106 1097559 1091779 1081581 1063944 1038734 1009806 
2429.564 984134 969722 972976 995492 1033519 1079190 1122074 1152571 1164963 
2433.904 1158285 1136658 1107690 1080518 1063777 1063412 1082511 1119948 
2437.761 1172139 1232245 1292425 1345003 1382928 1401875 1400179 1378739 
2441.618 1340582 1289434 1229022 1162704 1093838 1025947 963877 913703 
2445.476 880833 870408 883821 918319 967364 1021430 1070653 1107391 1127556 
2449.815 1132007 1125197 1113437 1102342 1095732 1094004 1094536 1092875 
2453.673 1084670 1065671 1034350 990843 937478 878077 817257 760495 713365 
2458.012 681206 669060 680542 717048 777224 856763 947639 1039464 1121443 
2462.352 1182771 1215664 1216827 1187954 1135827 1070188 1003164 945746 
2466.209 906067 888901 894479 920444 961785 1013326 1069590 1125795 1177821 
2470.549 1222243 1256336 1278534 1288869 1288637 1280794 1269263 1257433 
2474.406 1248527 1244506 1246135 1253545 1266903 1285014 1306682 1329781 
2478.264 1351152 1367571 1376246 1375548 1365643 1347529 1322336 1290165 
2482.121 1249590 1198520 1136226 1064840 991640 927417 884684 874126 900289 
2486.461 959760 1042188 1133834 1220183 1291528 1344571 1380833 1405166 
2490.318 1421388 1431061 1432724 1423349 1400479 1364413 1318514 1267701 
2494.176 1217193 1169947 1127356 1089221 1055939 1028704 1010636 1005057 
2498.033 1013360 1034283 1063479 1094935 1123104 1143867 1156093 1160212 
2501.891 1157455 1148020 1132107 1109916 1083508 1057965 1040162 1036409 
2505.748 1051023 1082943 1126326 1172538 1213804 1245437 1267967 1285812 
2509.605 1304522 1327155 1352481 1375283 1389044 1388678 1374053 1350188 
2513.463 1325925 1309906 1307746 1319245 1339519 1361156 1376379 1380933 
2517.320 1374585 1360358 1342743 1326224 1313362 1304888 1300235 1297975 
2521.178 1297078 1296912 1296181 1294585 1291827 1288371 1286144 1289135 
2525.035 1301531 1328185 1372258 1433555 1508625 1590626 1670147 1736909 
2528.893 1781821 1798922 1785980 1745824 1685182 1614437 1543971 1484021 
2532.750 1441068 1417432 1411182 1417332 1429931 1443927 1456792 1468828 
2536.607 1483057 1502707 1530504 1566815 1609283 1652685 1690471 1716749 
2540.465 1726463 1717648 1691768 1652552 1605159 1555177 1506730 1462178 
2544.322 1422185 1386451 1355705 1332207 1319411 1322170 1344072 1385288 
2548.180 1441866 1505134 1563856 1606822 1625512 1616799 1583343 1532765 
2552.037 1474945 1420523 1377942 1352282 1345933 1358331 1387349 1429898 
2555.895 1482924 1542907 1606589 1670513 1731453 1786180 1831863 1865970 
2559.752 1887134 1894888 1891061 1879314 1865171 1854190 1850962 1856686 
2563.609 1868765 1880945 1885337 1874988 1847768 1807041 1762292 1725864 
2567.467 1710030 1721906 1761261 1819019 1881710 1933693 1963015 1965812 
2571.324 1946640 1916686 1889564 1877217 1884505 1909332 1943279 1976463 
2575.182 2001327 2016373 2025961 2038877 2064045 2104896 2159103 2217581 
2579.039 2268905 2303046 2316137 2311907 2300348 2293553 2300914 2326364 
2582.896 2366507 2412218 2453101 2481159 2492856 2490023 2478160 2464131 
2586.754 2453335 2448870 2451669 2461665 2478560 2502421 2533248 2570443 
2590.611 2612075 2655311 2696818 2734595 2768640 2800486 2833002 2867788 
2594.469 2904045 2938437 2965125 2976935 2969262 2940572 2894105 2836971 
2598.326 2779811 2732994 2705054 2700819 2720791 2760937 2814793 2873825 
2602.184 2930564 2978470 3013501 3033554 3039126 3031385 3013501 2989679 
2606.041 2964925 2944475 2932666 2931699 2941106 2957419 2974733 2987244 
2609.898 2990847 2984441 2970663 2954416 2941706 2936836 2941873 2956151 
2613.756 2977469 3003025 3030484 3058913 3087010 3113473 3136368 3153956 
2617.613 3165538 3172713 3179422 3191038 3211466 3241509 3277864 3313153 
2621.471 3338796 3348279 3339731 3316525 3286544 3259068 3241242 3236168 
2625.328 3242043 3253660 3265144 3271921 3271855 3265745 3255830 3244814 
2629.186 3235133 3228924 3227689 3232696 3244914 3263809 3287646 3313587 
2633.043 3338061 3358363 3373489 3384409 3393325 3402274 3412293 3422846 
2636.900 3432297 3439444 3444721 3450198 3458949 3473544 3493852 3517134 
2640.758 3538947 3554781 3562464 3563066 3561496 3563066 3572186 3589358 
2644.615 3611375 3631723 3643751 3642883 3628415 3603624 3574191 3546563 
2648.473 3525952 3515330 3515597 3526386 3546162 3573355 3605896 3641479 
2652.330 3677366 3710917 3740226 3764791 3784912 3802460 3819540 3837424 
2656.188 3857147 3879077 3902814 3928057 3954104 3979784 4002825 4020682 
2660.045 4030514 4030882 4022689 4009379 3996705 3990485 3995668 4014060 
2663.902 4044126 4081417 4120619 4157181 4187992 4212783 4232457 4248785 
2667.760 4263106 4275921 4287332 4297337 4306372 4314873 4323540 4332107 
2671.617 4340072 4346331 4350481 4352991 4355501 4360253 4369056 4382544 
2675.475 4399413 4417220 4432953 4444401 4451297 4454745 4456787 4458628 
2679.332 4460570 4460904 4457289 4447548 4430844 4408484 4383481 4358981 
2683.189 4338232 4322302 4310890 4302357 4295062 4287901 4280874 4275152 
2687.047 4271638 4271002 4273077 4276390 4279502 4280505 4278230 4272140 
2690.904 4262236 4248952 4232958 4214724 4195152 4175045 4155709 4137946 
2694.762 4122258 4108577 4095532 4081518 4064427 4042755 4016535 3987174 
2698.619 3957514 3931534 3912878 3904018 3905990 3917425 3935647 3957447 
2702.477 3979851 4001387 4022154 4042922 4065029 4089244 4114865 4140288 
2706.334 4162935 4180967 4194014 4203482 4212148 4223824 4241758 4267322 
2710.191 4300081 4337596 4376419 4412936 4445104 4471985 4494851 4515675 
2714.049 4536868 4560842 4588903 4621854 4659631 4701531 4746416 4792813 
2717.906 4838814 4882172 4920909 4954053 4981100 5003389 5022763 5041668 
2721.764 5061681 5082800 5103687 5121656 5133961 5139225 5138152 5133726 
2725.621 5130340 5132620 5143215 5162126 5185530 5207763 5222182 5223725 
2729.479 5209641 5180903 5140969 5094366 5045959 4999032 4955126 4914441 
2733.336 4876609 4841092 4807722 4777034 4749029 4723236 4698583 4673028 
2737.193 4644660 4612075 4574805 4533654 4490398 4446945 4405505 4367884 
2741.051 4335555 4309418 4289808 4276457 4268928 4265849 4265816 4267556 
2744.908 4270032 4272742 4275453 4278130 4280104 4280138 4276289 4266753 
2748.766 4250625 4228475 4202914 4178324 4159858 4151662 4156378 4173172 
2752.623 4198732 4227404 4253335 4271973 4281074 4280941 4274683 4266720 
2756.480 4260763 4259693 4264477 4274248 4287265 4301788 4316379 4330668 
2760.338 4345327 4361157 4378963 4398911 4420668 4443497 4466696 4489594 
2764.195 4512293 4535027 4558666 4584181 4612578 4644526 4680664 4721058 
2768.053 4765108 4811977 4860291 4908443 4955260 4999903 5042272 5082533 
2771.910 5121254 5159142 5196529 5233551 5270073 5306162 5341617 5376772 
2775.768 5411998 5447931 5485679 5526450 5572058 5624284 5684808 5754036 
2779.625 5831234 5914088 5999142 6083071 6163453 6239614 6312831 6385454 
2783.482 6459704 6536523 6614869 6692490 6766455 6835149 6898737 6960247 
2787.340 7023583 7092857 7171034 7258087 7352099 7449637 7547770 7644104 
2791.197 7737728 7828942 7918050 8004814 8088725 8169176 8246601 8323062 
2795.055 8402204 8488457 8585980 8697047 8821532 8957181 9100316 9247357 
2798.912 9395395 9543078 9690302 9837238 9984190 10130615 10275290 10417435 
2802.770 10556606 10693307 10829440 10967417 11109992 11259347 11417292 
2806.145 11584448 11760928 11946403 12140101 12341180 12548627 12760678 
2809.520 12975120 13189224 13400631 13607252 13808499 14006109 14203843 
2812.895 14406976 14620999 14850658 15098416 15363513 15642613 15930934 
2816.271 16223401 16516099 16808064 17100504 17396656 17700534 18016438 
2819.646 18347330 18695044 19060448 19443764 19844828 20264072 20702106 
2823.021 21160620 21642114 22149840 22687940 23259880 23868174 24514162 
2826.396 25197704 25917702 26674480 27470312 28312266 29210894 30179536 
2829.771 31233190 32384642 33643468 35015020 36500284 38098636 39809760 
2833.147 41635032 43580088 45654272 47869536 50240464 52781484 55505428 
2836.522 58422980 61541532 64864844 68393008 72123488 76050328 80164880 
2839.897 84456528 88911016 93511944 98243256 103088312 108034344 113073928 
2843.272 118204744 123428328 128747464 134159904 139656368 145215200 
2846.166 150800608 156367536 161857424 167202480 172332160 177166304 
2849.059 181622592 185621088 189079408 191925168 194095504 195540512 
2851.952 196229744 196152704 195323264 193777216 191575152 188796096 
2854.845 185526080 181860048 177886864 173686016 169331536 164886096 
2857.738 160405936 155945664 151551904 147270096 143140928 139196768 
2860.631 135467168 131975816 128741320 125780448 123105840 120725680 
2863.524 118643704 116857240 115357224 114127904 113149384 112396064 
2866.417 111838792 111446280 111181808 111005680 110877728 110752768 
2869.310 110587408 110340344 109971368 109447720 108742032 107835776 
2872.203 106723096 105411672 103925768 102302248 100592024 98851568 97134224 
2875.578 95490800 93959208 92566600 91330328 90260688 89364560 88648584 
2878.954 88118928 87781656 87640824 87696528 87944632 88376368 88980640 
2882.329 89744208 90654600 91700976 92873920 94167120 95575856 97096680 
2885.704 98726944 100462928 102299432 104228472 106239320 108319728 
2888.597 110457152 112639200 114855912 117098976 119360744 121635192 
2891.490 123915400 126194744 128467232 130727304 132970648 135193456 
2894.383 137392384 139564288 141706608 143819056 145904352 147968960 
2897.276 150023408 152079136 154147632 156237952 158354448 160497648 
2900.169 162665040 164852832 167056960 169274976 171506192 173751952 
2903.063 176016144 178305184 180628784 182998048 185425936 187924720 
2905.956 190504400 193172736 195934976 198794576 201754832 204818480 
2908.849 207988528 211266480 214651616 218140768 221728720 225409312 
2911.742 229177184 233027200 236955328 240955872 245020112 249135408 
2914.635 253281984 257434816 261561696 265620384 269562816 273330048 
2917.528 276854944 280071584 282911744 285314976 287232320 288621408 
2920.421 289449792 289691104 289324032 288336512 286727552 284510688 
2923.314 281713152 278374624 274542624 270266048 265596576 260586448 
2926.207 255288816 249762976 244068624 238264272 232405200 226535760 
2929.100 220690800 214895760 209167728 203519552 197961168 192499728 
2931.993 187141488 181890112 176748176 171718192 166803376 162008928 
2934.886 157342736 152813536 148431840 144209264 140156224 136283808 
2937.779 132602904 129121872 125849160 122791008 119952392 117338936 
2940.672 114956760 112813544 110918616 109280344 107904720 106793608 
2943.565 105943456 105345368 104987152 104855776 104938336 105223808 
2946.458 105702480 106363416 107193600 108174848 109282048 110486040 
2949.352 111751480 113040144 114314536 115535688 116665608 117670728 
2952.245 118517784 119179824 119636136 119872824 119883656 119668072 
2955.138 119229784 118574864 117711400 116649272 115401216 113983128 
2958.031 112413656 110711552 108894984 106977496 104967568 102868736 
2960.924 100680128 98398584 96020896 93546176 90977032 88321624 85592968 
2964.299 82810056 79994504 77168360 74352696 71563576 68812944 66108784 
2967.674 63456832 60863064 58334556 55879620 53507812 51227544 49044908 
2971.050 46963068 44982260 43099532 41310116 39608696 37989340 36447020 
2974.425 34978316 33581284 32256282 31004774 29829040 28730140 27706408 
2977.800 26753092 25862380 25025120 24231162 23472820 22744954 22045180 
2981.175 21374064 20732896 20123284 19545962 19000594 18486160 18001172 
2984.551 17543738 17111566 16701929 16311392 15935471 15570108 15211469 
2987.926 14857139 14506489 14161119 13823891 13498512 13188780 12897052 
2991.301 12624212 12368862 12127426 11894229 11663370 11429130 11187333 
2994.676 10937038 10680232 10422119 10168671 9926251 9698977 9488381 9292511 
2998.534 9107962 8930494 8756140 8582972 8410211 8238666 8068573 7900201 
3002.391 7732736 7565606 7398506 7232717 7071134 6917556 6776350 6650296 
3006.249 6541198 6448438 6370289 6304157 6246908 6196154 6149102 6103097 
3010.106 6054947 6001057 5937735 5861928 5771731 5667418 5551855 5429411 
3013.963 5306464 5189320 5083303 4991758 4915246 4851144 4794656 4740252 
3017.821 4683611 4622457 4558264 4494683 4437773 4391748 4359316 4339135 
3021.678 4326987 4316144 4300014 4273947 4235836 4186320 4128379 4065731 
3025.536 4002155 3940830 3883691 3832376 3786817 3746342 3708878 3671853 
3029.393 3632491 3588957 3541485 3492149 3445155 3404745 3374090 3354088 
3033.250 3342636 3336859 3333186 3329046 3323871 3317494 3309814 3299498 
3037.108 3283640 3258835 3222815 3176519 3123285 3069858 3022943 2986677 
3040.965 2961255 2942874 2924627 2900009 2865220 2820295 2769673 2719257 
3044.823 2674647 2639243 2613308 2594575 2580643 2569510 2561044 2555644 
3048.680 2554145 2555811 2558078 2557711 2550579 2534714 2509519 2477360 
3052.538 2441672 2406753 2376568 2353847 2340922 2339023 2348384 2367706 
3056.395 2393726 2421447 2443771 2453801 2446637 2420148 2377201 2324865 
3060.252 2272535 2229770 2204093 2198232 2210521 2234666 2262743 2286725 
3064.110 2300815 2302280 2291621 2271802 2245723 2216349 2185644 2154375 
3067.967 2123808 2095806 2072734 2057719 2053192 2058951 2072467 2089048 
3071.825 2102132 2106427 2099535 2082555 2060083 2037878 2021067 2011580 
3075.682 2007252 2002293 1990143 1965911 1928468 1881277 1831696 1787843 
3079.540 1755938 1738006 1731752 1731586 1731253 1726862 1718113 1708200 
3083.397 1702412 1705373 1718413 1739570 1762724 1780890 1788608 1783884 
3087.254 1768979 1749949 1734513 1728426 1734513 1751014 1772506 1792368 
3091.112 1804146 1804046 1792335 1771607 1745824 1719444 1695161 1673906 
3094.969 1655546 1639481 1625346 1614205 1607320 1606323 1611577 1622519 
3098.827 1636122 1648262 1654614 1651089 1635224 1607420 1569941 1527378 
3102.684 1485385 1449479 1423316 1408922 1405299 1410684 1421487 1434984 
3106.542 1449512 1464506 1480131 1496523 1512515 1526081 1534494 1535458 
3110.399 1528808 1516572 1502574 1491003 1485451 1486349 1491968 1498750 
3114.256 1502773 1501310 1494228 1482924 1470257 1458455 1448382 1439971 
3118.114 1432458 1424645 1416601 1408656 1400246 1390274 1376612 1356536 
3121.971 1329581 1297244 1265375 1241615 1233807 1246566 1280229 1329914 
3125.829 1387016 1442364 1489042 1523754 1546864 1561229 1569775 1573766 
3129.686 1572635 1564321 1547795 1524219 1497420 1472983 1456427 1450908 
3133.543 1455995 1467697 1480165 1487911 1487246 1478037 1462744 1445689 
3137.401 1431228 1422950 1421953 1427970 1439173 1453534 1469094 1484420 
3141.258 1498950 1512050 1522989 1530703 1533762 1530836 1521526 1506796 
3145.116 1489208 1472385 1460616 1457059 1462378 1474945 1490604 1504004 
3148.973 1510188 1506630 1492500 1470024 1441932 1411581 1380601 1349889 
3152.831 1319444 1289567 1261620 1237993 1221778 1215664 1220981 1237462 
3156.688 1262683 1293256 1325726 1356303 1381831 1400412 1410783 1413576 
3160.545 1410650 1405797 1403038 1405930 1415603 1430297 1445124 1454100 
3164.403 1452969 1440935 1421587 1402639 1393465 1399880 1423183 1457158 
3168.260 1491170 1512948 1513114 1489175 1446653 1397387 1355306 1332938 
3172.118 1337225 1366940 1414706 1469725 1520362 1557671 1577789 1581148 
3175.975 1572103 1555942 1538218 1522391 1509323 1497720 1485152 1468894 
3179.833 1447318 1420590 1390839 1362685 1340549 1328983 1330279 1344072 
3183.690 1366773 1392900 1415803 1429665 1431095 1420557 1401409 1379005 
3187.547 1360093 1349357 1349091 1358364 1372657 1385952 1391271 1383759 
3191.405 1360790 1323632 1276241 1224902 1176890 1138817 1116327 1112573 
3195.262 1127954 1160179 1203836 1251850 1295317 1326091 1338123 1328817 
3199.120 1299803 1256801 1207823 1161009 1122672 1096728 1083541 1081183 
3202.977 1086464 1096529 1108089 1118852 1126725 1129050 1123935 1110381 
3206.834 1089653 1064940 1041956 1026412 1022393 1030995 1049263 1072081 
3210.692 1093008 1108288 1116460 1119848 1121975 1125961 1132372 1139183 
3214.549 1141940 1136392 1120247 1094868 1064541 1035545 1013858 1002832 
3218.407 1002931 1011500 1024319 1037272 1047170 1052684 1053448 1049196 
3222.264 1039597 1023755 1001370 972445 939238 904639 872798 846736 828378 
3226.604 816659 808792 800593 788178 768992 743302 713265 683861 660167 
3230.943 647159 647689 661793 686582 716982 746654 769789 782601 784128 
3235.283 776560 764345 752861 746820 748712 758503 774270 792327 809655 
3239.623 824328 836412 846936 857393 868582 879936 889565 895342 895475 
3243.962 890030 881098 871968 866059 866125 871935 881364 890893 896770 
3248.302 896571 889930 878243 864166 849359 834984 820377 804178 785356 
3252.641 763980 742173 723587 712269 711241 721197 740680 765573 790900 
3256.981 812145 825888 830403 825988 813904 796709 777124 758205 742439 
3261.321 731619 726043 724582 724350 721429 712203 694879 669525 639029 
3265.660 608568 583186 566796 561321 565336 575190 586437 594765 597486 
3270.000 593836 584811 572701 560392 549975 543771 543008 548482 560492 
3274.339 578541 602031 629970 661361 695277 731353 769092 807199 844014 
3278.679 876384 899924 910881 906100 885182 850023 805871 759366 716883 
3283.019 683164 660366 647358 641219 637867 634582 629837 624130 619153 
3287.358 617328 620048 627879 639427 652567 664447 672478 675233 672777 
3291.698 666206 658275 652302 651074 656948 669657 687180 705665 720135 
3296.037 726109 720567 703475 677224 646528 617427 594599 581460 579602 
3300.377 588129 605383 629273 657976 689835 723653 757806 790568 820278 
3304.717 845442 865461 880202 889665 894180 892918 884917 868914 845574 
3309.056 817025 787381 761856 745293 740779 747517 761590 777523 788477 
3313.396 789970 780610 762221 738622 714493 693784 677722 666571 658707 
3317.735 653231 650245 650278 655289 666604 683695 704702 725479 741476 
3322.075 748380 744032 728067 703309 673772 644272 619053 601003 590551 
3326.415 587034 588361 592642 598415 604885 612284 620314 628410 635014 
3330.754 638232 636341 628941 618091 607506 602529 608502 629008 664846 
3335.094 713663 770386 828544 882194 927052 961121 983968 996289 999378 
3339.433 994330 982441 964774 942990 918518 892752 866789 840495 814236 
3343.773 788178 763582 742704 728565 723089 727370 739949 756976 773639 
3348.113 785091 788742 784029 773606 761059 750272 743999 742206 743268 
3352.452 744165 741941 735070 723454 708652 693585 680443 670719 665310 
3356.792 663253 663352 665012 668231 673872 683761 699094 720732 747982 
3361.131 778419 808327 834652 853907 865395 869744 869312 867320 866523 
3365.471 868582 873827 881032 888204 892420 891557 883522 867420 843516 
3369.811 813805 781572 751898 729395 718376 720633 734407 754653 774270 
3374.150 785755 783663 766370 735966 697700 658707 624594 599244 583750 
3378.490 577313 577910 584115 594002 606245 619186 630368 637104 637403 
3382.829 630136 616730 600206 584181 572137 565402 563876 565933 569881 
3387.169 575322 582787 594068 610459 631928 656649 681438 702977 718841 
3391.509 728200 732482 733477 732880 731254 727802 721794 713232 703906 
3395.848 696903 695841 702778 717048 734606 749442 755151 747019 723719 
3400.188 687711 644172 598979 558136 526852 508109 504460 517265 546392 
3404.527 590385 645433 704968 760428 803713 828577 832229 817224 789141 
3408.867 756246 724914 699392 680576 665708 651671 635644 617095 597718 
3413.207 580399 567824 561288 560592 564075 570578 579702 592011 608535 
3417.546 629339 652236 672843 685520 685056 669657 642015 609231 580498 
3421.886 564772 567028 587233 620712 661129 701516 737294 766436 789373 
3426.225 806734 818186 822037 815697 797638 768793 733444 699027 674503 
3430.565 666439 678452 708585 751301 797638 839034 869279 884751 885415 
3434.905 873097 850787 821506 787481 750570 712435 674038 636805 601401 
3439.244 568819 539591 514279 493778 478851 469962 466910 469365 476331 
3443.584 487774 504559 529207 564473 612749 673540 741974 809290 864996 
3447.923 898198 903344 879837 832461 769689 702081 637867 583783 542842 
3452.263 514478 496300 485320 478984 477193 480610 491556 511459 540420 
3456.603 576517 615469 651970 680111 695410 695941 681969 656350 622935 
3460.942 585973 548748 513284 480576 451818 428402 413112 408370 415832 
3465.282 435533 464356 496266 523933 540951 542477 527814 500148 465219 
3469.621 430060 401704 385685 385022 400476 430127 469630 513251 554023 
3473.961 585740 603524 606113 595959 578408 560492 549179 549444 563113 
3478.301 589290 624462 664215 703309 736863 760661 771681 769158 753624 
3482.640 729030 700222 672744 651174 636706 627979 620314 607904 585110 
3486.980 549212 501176 445848 389698 339458 300596 275563 265617 271154 
3491.319 291776 327156 376035 434571 497096 555283 601135 626983 628709 
3495.659 606942 566198 513118 455434 399846 350467 309847 278614 257328 
3499.999 245758 243205 248775 261473 279907 303348 331831 365390 404257 
3504.338 447440 491423 532226 564606 583982 587233 572933 542046 497759 
3508.678 444289 387310 332594 285377 249703 227425 218474 219866 226298 
3513.017 231237 228154 212640 185026 149692 115288 91824 88211 109057 153901 
3517.839 215723 285278 351628 406380 445317 467905 476629 475733 469066 
3522.179 459679 449861 440740 433841 430889 433410 442962 459513 481472 
3526.518 506284 529705 547719 557307 556909 546757 528411 503465 473279 
3530.858 439413 403196 366849 333920 307858 292075 288792 297778 315849 
3535.198 337767 357232 368474 368441 356536 334915 306564 274005 239790 
3539.537 206142 175811 152841 141173 144753 164210 197623 238265 277453 
3543.877 306730 320524 319131 308355 296949 292009 295225 302154 305470 
3548.216 297579 275165 240354 199744 162718 137461 129971 140378 163746 
3552.556 191921 217015 235149 246587 254477 262898 274701 290152 307858 
3556.896 325199 339922 351495 360548 368474 377229 386846 396663 404589 
3561.235 408635 407441 402002 394905 390859 395369 413610 448966 501143 
3565.575 564440 625457 667368 674403 640588 573066 487144 399448 322314 
3569.914 263793 227591 214662 223679 251991 294827 345692 397624 442631 
3574.254 474141 487874 483396 463593 434140 401670 371856 347781 329543 
3578.594 315285 301558 285112 263860 236939 204949 169082 131064 93182 58087 
3583.415 30153 14645 17461 44666 100772 185888 292804 405783 502105 562084 
3588.237 577844 555283 509170 454306 402897 361609 333290 317705 312997 
3592.577 316678 326791 342542 364395 393048 428137 467308 506119 539591 
3596.916 562914 573896 572933 562284 545065 524298 500313 472217 437987 
3601.256 397094 351429 305835 266048 237304 222220 220529 229812 246786 
3605.595 269032 296120 329212 369203 414472 458585 491921 504758 492850 
3609.935 458585 409962 357564 311505 279542 265153 267175 282194 306830 
3614.275 339922 383165 439181 508242 587067 667534 736498 779879 786883 
3618.614 755350 695012 623798 559928 514047 488405 478785 479017 482898 
3622.954 486083 485651 479880 468370 452448 435699 423294 423095 442962 
3627.293 489300 560990 643309 710178 736796 717248 665642 601666 539060 
3631.633 485088 441503 406413 377593 352589 330239 310344 293799 280603 
3635.973 270822 264191 261141 262965 271684 289721 318302 356071 398652 
3640.312 439447 470924 486016 481605 458817 423759 385155 351992 331765 
3644.652 328913 345128 378953 426312 480046 531563 573597 602695 620712 
3648.991 633487 644869 654824 659702 656052 644371 628211 612085 600306 
3653.331 595230 596756 602529 608037 608137 599078 581361 559099 537899 
3657.671 520449 505521 489134 466943 436793 400211 362803 331864 314423 
3662.010 313959 327620 348477 367413 375471 367811 344432 309880 271552 
3666.350 237138 214430 209789 228386 273077 342276 426976 509834 571772 
3670.689 601600 601666 582389 557241 537833 532492 547387 584081 637336 
3675.029 690166 721960 720533 690166 643243 589921 534880 479017 422996 
3679.369 368308 317805 275033 241647 217247 199446 185291 172728 162287 
3683.708 156221 158475 171933 197490 232530 272016 308852 336109 349539 
3688.048 349406 342044 334252 329808 325829 315948 294694 261738 222220 
3692.387 184761 156884 143195 144621 158310 179656 203457 225800 244465 
3696.727 258920 269728 276591 278249 272778 257859 232497 198684 161856 
3701.067 129871 111079 110416 127485 156918 191192 223878 250598 269198 
3705.406 280404 286571 291146 298176 311140 331400 357928 386116 408635 
3709.746 416960 404954 372088 326426 281233 248410 234420 237006 249438 
3714.085 263893 275066 280139 279177 273607 265186 255173 243570 229812 
3718.425 213601 195667 179424 170010 173557 194871 235680 292440 356337 
3722.765 416761 462598 486580 486016 461669 417623 359719 295888 234088 
3727.104 181877 144289 123972 121618 136202 166165 208396 258522 311041 
3731.444 360051 402002 438153 476165 526222 598017 693551 801921 899227 
3735.783 957169 959428 907992 819249 712203 602662 500015 409099 331267 
3740.123 265783 210120 161757 118404 79860 48974 33069 44203 93812 183071 
3744.945 297645 417424 527947 624030 706362 775564 830270 868051 884817 
3749.284 879472 854937 818452 777655 736298 692755 643774 587764 526023 
3753.624 462565 401869 347383 301160 263760 234751 213137 198054 189203 
3757.964 187181 192617 205612 224375 245426 265053 280802 292804 303116 
3762.303 315517 332859 356337 383596 408967 423924 420840 396596 354679 
3766.643 303779 253284 211115 181877 166397 161790 162917 164574 163514 
3770.982 159868 155459 152708 152841 155956 161425 168254 176176 185988 
3775.322 198750 215623 237171 262931 290782 318302 341613 357995 366351 
3779.662 367645 364527 359984 356104 353418 351694 349771 345858 339458 
3784.001 329609 316711 301757 286737 271983 258290 245360 232530 219535 
3788.341 207203 196396 189568 188606 194639 207899 227458 250631 274536 
3792.680 296750 314821 327123 331632 325630 307128 274867 231337 183236 
3797.020 140245 111079 100838 110250 135572 170508 205877 230740 237105 
3801.360 224010 201070 182076 177270 189468 216551 254809 300961 351462 
3805.699 400974 443228 469398 472848 452946 415169 368341 321353 282161 
3810.039 255737 245128 250300 268070 293666 321121 346620 367678 384359 
3814.378 397392 408237 417457 424853 430425 435201 441868 453941 474009 
3818.718 503531 540951 580797 610592 615635 586503 526786 451885 378157 
3823.058 316346 270756 242111 229745 232331 247449 271121 299071 325995 
3827.397 348179 364030 373680 377925 377892 373448 364925 352191 336639 
3831.737 320955 308653 303116 305934 316976 334020 354645 375836 395701 
3836.076 413444 429331 442929 453311 458054 455235 444621 429828 415533 
3840.416 406811 405849 410957 417125 417756 406280 379650 340187 294893 
3844.756 253516 224043 211048 215026 232961 259417 289091 317440 341879 
3849.095 362770 382568 406313 439612 487443 551037 623798 684591 702213 
3853.435 654359 548416 416827 292639 196098 133119 103191 101203 120425 
3857.774 153172 192617 233923 274701 313528 350368 384724 415169 440044 
3862.114 458817 472483 485353 502834 528610 562649 600372 634018 657512 
3866.454 668264 667202 657910 644703 631363 620712 612948 605416 594765 
3870.793 578275 555980 528909 498423 465948 432448 399979 371193 348875 
3875.133 334617 328349 329013 334119 341845 350600 359620 369071 380545 
3879.472 395933 416893 443095 471786 499716 524928 546923 567559 589324 
3883.812 613777 640721 666074 682534 683230 664912 630434 586105 538364 
3888.152 490959 446545 405783 368407 334948 305968 283653 270888 270060 
3892.491 281564 303448 332130 362969 391323 414207 429331 436030 434870 
3896.831 426511 412151 391887 365821 334650 300563 268369 244929 236376 
3901.170 246686 275630 317440 362936 401737 424389 427108 412482 386945 
3905.510 357331 327885 299601 271751 243968 217480 195866 184098 186717 
3909.850 205711 239094 280835 322513 355342 373382 375703 365124 346985 
3914.189 327786 312699 304973 305106 311173 320126 328250 332627 331798 
3918.529 325929 316810 307625 302154 303315 312566 328747 348477 366318 
3922.868 376333 374642 360415 338065 314655 298474 294595 303514 321751 
3927.208 343934 364527 379252 386514 386813 382767 378091 376499 380843 
3931.548 392418 410127 431321 451387 465020 468104 457822 434040 398652 
3935.887 355640 309814 265882 227325 195965 171966 154896 144687 141903 
3940.227 147637 162884 187181 217877 250532 280669 305371 324702 341547 
3944.566 358791 377859 397724 414671 423792 420873 404755 378058 346853 
3948.906 318534 299701 293501 300596 319098 346919 382037 421702 462830 
3953.246 500347 528378 541217 535046 510166 471886 429629 394175 374178 
3957.585 374244 393247 424488 458154 484922 497361 492319 471255 440010 
3961.925 406347 378820 365025 368839 390361 425914 469000 510464 541184 
3966.264 553691 544070 512853 464522 406977 349671 300464 265219 246620 
3970.604 244299 256367 279542 310742 346554 383994 419149 447938 466778 
3974.944 472947 465716 446777 419745 389930 362339 340950 327388 320756 
3979.283 318037 315517 308985 296418 277884 255604 233359 214927 202728 
3983.623 196960 196098 197258 197987 197556 197059 199976 210186 231138 
3987.962 263959 306664 353684 398188 431951 449497 448103 428899 396795 
3992.302 358757 322812 295291 281564 283918 302088 333655 374344 419049 
3996.642 462598 500181 528046 543439 545695 535378 515440 489997 464157 
##END=
