##TITLE=aa_1 01.SPA 01 12:39:04 2026 (GMT+02:00)
##JCAMP-DX=5.01  $$ Nicolet v. 970
##DATATYPE=INFRARED SPECTRUM
##ORIGIN=Vojna akademija
##OWNER=Nicolet
##LONGDATE=2026/09/01
##TIME=12:39:36
##SPECTROMETER/DATA SYSTEM=Nicolet iS20
##DATA PROCESSING=
Ratio against background
%Transmittance->Absorbance
Truncated
ElementMultiply or ElementDivide
##COMMENTS=
Number of sample scans: 8
Collection length: 11,90 sec
Sample gain: 8,0
Background collected on: Tue Sep 01 12:38:26 2026 (GMT+02:00);
Number of background scans: 8
Background gain: 8,0
Sample spacing:  1,000
Number of scan points: 12415
Resolution points: 8286
Number of FFT points: 65536
Apodization: N-B strong;
Phase correction: Mertz;
Laser frequency: 15798,00 cm-1
Number of rejected sample scans: 0
Number of rejected background scans: 0
Bench serial number: BER2010005;
##RESOLUTION= 4,000
##XUNITS=1/CM
##YUNITS=ABSORBANCE
##FIRSTX=400.156891
##LASTX=4000.123047
##FIRSTY=0.010912
##MAXX=4000.123047
##MINX=400.156891
##MAXY=0.180570
##MINY=-0.002443
##XFACTOR=1.000000
##YFACTOR=1.000000E-009
##NPOINTS=7468
##DELTAX=0.482117
##ZPD=6100
##XYDATA=(X++(Y..Y))
400.157 10911861 10281635 10185597 10409663 10623287 10509826 9887979 
403.532 8750630 7294308 5852156 4827824 4518856 5007009 6114926 7498482 
407.389 8764998 9597782 9846017 9518388 8767534 7816493 6900690 6188860 
411.246 5755412 5592162 5623814 5729895 5762228 5594378 5147775 4425789 
415.103 3512424 2570910 1814926 1471587 1761893 2803754 4498366 6413061 
418.959 7936880 8643571 8558843 8014669 7356008 6766590 6264859 5782711 
422.816 5240963 4615223 3970020 3443251 3170544 3215071 3517100 3915653 
426.673 4210307 4251193 3976072 3440346 2785280 2196533 1829400 1757867 
430.530 1960086 2331694 2727459 3005394 3083406 2946843 2642710 2251252 
434.387 1867334 1575129 1423848 1417565 1510387 1627874 1695826 1681556 
438.244 1608484 1554944 1622752 1909165 2462898 3252625 4153435 4967459 
442.101 5493430 5579006 5198239 4456050 3554046 2695351 2030920 1636820 
445.958 1511551 1608917 1861910 2208123 2598042 2997353 3383874 3739558 
449.815 4053557 4321164 4550295 4759581 4968297 5183854 5387943 5532189 
453.672 5552828 5393613 5019579 4432317 3671285 2827032 2027924 1426673 
457.529 1160212 1282123 1731353 2354247 2982673 3475648 3746776 3765793 
461.386 3542688 3127123 2597075 2053857 1593020 1291960 1207922 1375781 
465.243 1816424 2526415 3465962 4536299 5583973 6443561 6971291 7104510 
469.100 6875543 6402805 5841510 5340476 4995378 4807923 4684448 4474630 
472.957 4057671 3395929 2561444 1686878 917688 357530 55933 21935 237967 
477.296 677921 1316287 2129502 3080836 4106537 5117935 5996085 6623213 
481.152 6918634 6862347 6515030 5997194 5462057 5036406 4794756 4743200 
485.009 4830572 4973358 5090947 5136677 5101440 5012707 4918162 4871717 
488.866 4912833 5051993 5260448 5477458 5620760 5613375 5417600 5052462 
492.723 4596671 4157516 3839965 3701627 3741329 3909802 4138616 4369524 
496.580 4572662 4750971 4924026 5101206 5263097 5358154 5321021 5104324 
500.437 4707660 4195085 3680708 3294623 3116711 3142575 3287879 3438409 
504.294 3492783 3407718 3206793 2969762 2800719 2786547 2975133 3355658 
508.151 3873327 4447180 5001981 5477156 5825189 6014092 6021147 5840637 
512.008 5490578 5015992 4481158 3951830 3488374 3131228 2900910 2803254 
515.865 2834669 2984341 3235100 3562298 3931167 4298073 4623160 4877547 
519.722 5054407 5169436 5252566 5330413 5414883 5496719 5550747 5546385 
523.579 5462090 5295966 5070196 4824340 4599551 4428200 4320997 4268058 
527.436 4249454 4246543 4249152 4254172 4262972 4277360 4297471 4323741 
531.293 4355702 4393188 4431781 4458628 4453138 4393154 4265515 4081250 
535.150 3881718 3735113 3709848 3853737 4167318 4601527 5062988 5447830 
539.007 5681853 5741445 5665941 5538599 5459339 5499571 5681988 5972401 
542.863 6299517 6577057 6735360 6742225 6600942 6343357 6011505 5645532 
546.720 5270207 4897116 4532449 4184580 3873093 3629517 3486637 3472976 
550.577 3599949 3857080 4214389 4631164 5064597 5473129 5824350 6092815 
554.434 6258908 6309031 6232084 6022424 5682424 5230902 4707928 4170964 
558.291 3692571 3338896 3151086 3135333 3258200 3457847 3659222 3805635 
562.148 3871589 3872625 3851765 3863833 3947651 4108778 4316446 4514637 
566.005 4643857 4660334 4554112 4350012 4098944 3855442 3664669 3550538 
569.862 3514762 3546830 3633594 3767699 3946046 4163939 4410358 4661037 
573.719 4885020 5051356 5140298 5153073 5114247 5065201 5044719 5076900 
577.576 5157599 5256021 5325013 5318707 5208769 4994507 4705785 4395932 
581.433 4125570 3939492 3860122 3883791 3989749 4146410 4324109 4500341 
585.290 4659798 4795058 4903584 4983178 5032450 5049814 5034495 4986128 
589.147 4904958 4791473 4647708 4480221 4303863 4141024 4020481 3966375 
593.004 3988946 4077270 4200638 4313166 4364973 4319290 4158787 3893453 
596.861 3556017 3196679 2867621 2614342 2475494 2474994 2623442 2914252 
600.717 3322535 3803429 4296501 4738678 5067112 5237240 5232411 5069089 
604.574 4792981 4467164 4158988 3918227 3771308 3718269 3737653 3793401 
608.431 3845246 3859755 3811351 3687892 3492516 3242110 2965725 2699352 
612.288 2479960 2333826 2273468 2294019 2378534 2502620 2643677 2788014 
616.145 2931899 3079335 3235834 3401306 3567242 3718302 3837223 3913814 
620.002 3949022 3956712 3957715 3974267 4020682 4098108 4192442 4278364 
623.859 4327523 4314270 4225497 4063356 3846182 3600617 3357528 3143510 
627.716 2973298 2852112 2775375 2733828 2717490 2718624 2733261 2759936 
631.573 2798752 2848077 2904546 2962156 3012700 3046667 3056711 3038025 
635.430 2992782 2930164 2867988 2829600 2837638 2908248 3041428 3218442 
639.287 3400404 3541920 3600918 3556485 3417603 3224918 3036824 2908215 
643.144 2875126 2937970 3063151 3192306 3268850 3255062 3146480 2972231 
647.001 2786246 2647344 2598842 2661646 2827899 3071293 3354957 3647293 
650.858 3926252 4180331 4406576 4606751 4784840 4945943 5096277 5241264 
654.715 5383583 5521148 5646908 5751249 5824819 5864414 5873079 5860149 
658.571 5835835 5808029 5779688 5751517 5724087 5703205 5699377 5726269 
662.428 5793221 5898738 6028606 6160394 6269598 6338012 6358286 6333271 
666.285 6273296 6190474 6096377 5992927 5871803 5718984 5530276 5313005 
670.142 5079649 4843337 4616664 4412902 4245070 4125369 4062286 4057102 
673.999 4103025 4186152 4288704 4389707 4469608 4512361 4509414 4462746 
677.856 4387263 4309150 4258254 4265046 4347870 4505296 4711780 4922283 
681.713 5083638 5145562 5079079 4883948 4592117 4256982 3941766 3699321 
685.570 3555716 3508048 3528558 3578667 3618625 3622601 3584180 3513960 
689.427 3433366 3367111 3336859 3356927 3435770 3575460 3773882 4023959 
693.284 4314103 4628652 4947149 5247435 5508397 5712135 5848730 5915969 
697.141 5920940 5878788 5813335 5755647 5737215 5788754 5928666 6159352 
700.998 6465186 6816300 7177030 7511697 7797636 8025942 8202535 8341706 
704.855 8460076 8571651 8686838 8816088 8972267 9170598 9426919 9749633 
708.712 10136279 10571170 11033074 11501729 11970279 12450279 12971194 
712.086 13570125 14276805 15103459 16039254 17055252 18113258 19183126 
715.461 20250290 21317266 22396356 23498178 24622786 25755696 26868798 
718.836 27927760 28900342 29755014 30464416 31003456 31349026 31487446 
722.211 31418908 31161096 30743118 30200030 29562450 28848746 28069688 
725.586 27232012 26348064 25442618 24550344 23709730 22956034 22308624 
728.961 21769008 21320466 20935214 20580354 20227900 19860262 19471174 
732.335 19065088 18653258 18252152 17878172 17544152 17256968 17016212 
735.710 16814782 16642295 16489116 16349167 16221097 16106162 16003670 
739.085 15906667 15800236 15662914 15473992 15221696 14908367 14551611 
742.460 14180255 13826149 13513039 13254637 13051598 12896335 12777467 
745.835 12685378 12614456 12561144 12521344 12488266 12450381 12395965 
749.209 12314830 12202426 12062216 11902369 11733728 11564371 11399230 
752.584 11237993 11077700 10914579 10746763 10575583 10406067 10244282 
755.959 10097615 9972324 9872354 9799788 9755157 9737909 9747296 9781623 
759.816 9838086 9910692 9989988 10063331 10116947 10139840 10126613 10081371 
763.673 10016435 9951508 9906149 9893403 9914996 9961611 10016435 10062008 
767.530 10089850 10103449 10119253 10156969 10233223 10350277 10493397 
770.905 10632149 10730461 10758379 10700438 10560951 10362187 10136856 
774.279 9915945 9722763 9567973 9448895 9354157 9268715 9180954 9083297 
778.136 8973485 8853656 8726829 8594632 8456190 8308572 8147433 7970153 
781.993 7776923 7571607 7362040 7157931 6968260 6800414 6658640 6544865 
785.850 6460141 6405562 6382865 6393961 6439358 6516712 6620588 6742696 
789.707 6871268 6992840 7093194 7157796 7174403 7135565 7040656 6897996 
793.564 6726005 6551155 6399442 6291920 6234975 6220824 6227816 6232017 
797.421 6216892 6180996 6139592 6119160 6145876 6231883 6369718 6531914 
801.278 6683707 6792774 6843733 6842386 6813810 6788500 6789106 6822427 
805.135 6875206 6920687 6929407 6882747 6778773 6635257 6480791 6350653 
808.992 6274540 6269195 6336801 6463370 6623213 6783519 6913954 6990988 
812.849 7003918 6958092 6873220 6777494 6697571 6651911 6643870 6662678 
816.706 6687308 6696225 6675161 6620858 6542376 6455837 6379233 6324564 
820.563 6297769 6297433 6317402 6348804 6381587 6405562 6409698 6384714 
824.420 6325438 6233563 6118689 5997832 5890409 5811891 5770522 5764780 
828.277 5786572 5823980 5867873 5913282 5959334 6005290 6047421 6077157 
832.133 6083641 6058206 5999882 5917548 5829151 5755345 5711061 5701358 
835.990 5720125 5753834 5787949 5816055 5842685 5882416 5953019 6067984 
839.847 6228858 6422645 6623179 6798630 6921327 6972469 6949304 6864367 
843.704 6743436 6617527 6517889 6468347 6479143 6546513 6653459 6776148 
847.561 6888301 6970112 7011831 7015165 6989776 6948294 6901834 6855682 
851.418 6810982 6766422 6722303 6682025 6651440 6636300 6638655 6654738 
855.275 6676843 6695720 6705209 6705209 6700162 6695215 6690673 6679165 
859.132 6645822 6572785 6449211 6278339 6081995 5896992 5765586 5726706 
862.989 5800642 5983218 6245732 6544831 6831110 7062007 7213076 7277427 
866.846 7266780 7204014 7117949 7033551 6967890 6927723 6910015 6903686 
870.703 6894058 6867296 6813810 6731221 6624424 6505747 6391405 6297534 
874.560 6239312 6226102 6260892 6339794 6453348 6586577 6719309 6830101 
878.417 6896650 6899949 6831346 6694038 6506251 6298274 6110759 5982345 
882.274 5941564 5999915 6146851 6352604 6575341 6775038 6919913 6995702 
886.131 7007319 6975735 6930046 6897188 6896818 6935029 7005770 7094709 
889.987 7185991 7265836 7327094 7370027 7399382 7422133 7443974 7467468 
893.844 7492009 7514259 7530003 7535194 7527912 7508056 7477312 7439357 
897.701 7399045 7362748 7337103 7328948 7343741 7384519 7449772 7531991 
901.558 7616385 7684033 7712937 7682853 7581587 7408044 7175683 6909342 
905.415 6644779 6418408 6258606 6182072 6188592 6262942 6378561 6507428 
909.272 6625299 6716986 6780187 6822427 6857029 6896044 6947655 7012336 
913.129 7084437 7154529 7215198 7263141 7301081 7336564 7378082 7431705 
916.986 7498650 7573293 7646026 7707102 7749297 7770919 7775405 7770008 
920.843 7761710 7754491 7748319 7739819 7725687 7705820 7685416 7675669 
924.700 7690070 7738638 7823578 7936306 8057400 8158845 8213813 8201961 
928.557 8116812 7968432 7782759 7596120 7444446 7358974 7356985 7438750 
932.414 7588803 7781646 7989052 8185078 8353292 8486159 8583648 8648776 
936.271 8686060 8698365 8687311 8656821 8613659 8568711 8536810 8532113 
940.128 8564622 8638603 8750968 8893088 9053828 9222751 9389978 9547109 
943.985 9686440 9800635 9884454 9937506 9966018 9983851 10009789 10063128 
947.841 10155985 10289066 10449644 10616191 10762964 10868474 10922122 
951.216 10924534 10886412 10822272 10746967 10670826 10600165 10539563 
954.591 10492208 10461830 10451138 10459589 10482738 10513254 10544384 
957.966 10573071 10602473 10641555 10701389 10789084 10903638 11034094 
961.341 11163160 11271419 11344672 11378345 11378617 11359162 11334877 
964.716 11318179 11314506 11321648 11331443 11333687 11318111 11276826 
968.090 11206848 11109924 10993074 10867727 10747646 10644543 10564618 
971.465 10505990 10458571 10408239 10340843 10249779 10137805 10016774 
974.840 9901776 9805990 9735131 9686542 9651612 9622375 9595851 9576780 
978.697 9574714 9599036 9652797 9729404 9813108 9883573 9924522 9927268 
982.554 9893267 9830222 9748177 9652899 9544771 9421061 9280561 9129348 
986.411 8983023 8861873 8787313 8770915 8809460 8882402 8957621 9001628 
990.268 8988334 8909491 8775852 8614843 8459502 8339511 8273043 8261055 
994.125 8289356 8334850 8375113 8392780 8380957 8342956 8288714 8229414 
997.982 8174409 8128831 8093687 8067054 8045789 8026719 8006164 7979873 
1001.839 7943595 7894430 7833058 7765049 7701571 7656548 7641744 7662180 
1005.695 7712533 7776620 7830932 7852862 7825399 7743327 7614126 7455907 
1009.552 7290365 7136878 7009238 6911766 6841545 6790250 6748384 6707396 
1013.409 6662207 6612716 6563938 6525524 6508269 6522968 6574567 6660289 
1017.266 6768037 6880088 6975802 7036716 7053386 7025133 6960045 6870662 
1021.123 6770259 6669912 6576888 6497573 6438383 6406672 6409698 6451128 
1024.980 6528215 6629403 6737413 6830202 6887594 6896482 6852586 6761004 
1028.838 6634450 6491318 6351494 6235681 6163351 6149035 6199918 6313032 
1032.695 6474804 6662443 6849051 7011057 7132197 7208158 7244239 7252292 
1036.553 7242757 7219746 7180736 7118252 7025840 6903080 6757874 6606559 
1040.410 6467843 6356235 6278473 6231110 6202103 6175215 6137407 6081726 
1044.267 6011169 5936324 5873818 5841006 5849234 5901929 5991214 6100712 
1048.125 6206472 6285533 6320697 6305132 6244454 6156260 6064556 5991147 
1051.982 5952616 5954631 5992289 6053704 6124503 6193196 6253093 6303316 
1055.840 6346384 6384983 6420190 6449514 6468111 6471138 6455601 6422678 
1059.697 6377989 6331557 6294004 6275649 6282137 6313099 6362153 6419047 
1063.555 6474098 6521387 6563635 6609857 6674387 6769922 6900185 7056922 
1067.412 7219544 7360457 7451929 7476536 7431604 7330363 7194851 7049109 
1071.269 6910049 6781701 6658371 6529560 6388682 6238673 6093957 5976366 
1075.127 5908983 5905624 5966959 6076854 6208926 6331960 6418844 6456038 
1078.984 6444133 6398030 6339693 6294172 6280288 6306779 6370727 6460612 
1082.842 6558858 6646898 6710189 6738490 6726846 6675464 6588191 6472282 
1086.699 6337675 6199448 6074334 5979691 5929673 5929203 5972267 6040970 
1090.557 6111565 6158411 6163049 6119765 6036232 5931857 5829387 5750275 
1094.414 5706461 5697632 5713042 5734092 5739968 5712236 5640866 5524336 
1098.271 5372478 5202196 5037981 4903919 4819783 4796666 4833788 4920072 
1102.129 5035936 5161656 5279296 5379288 5460513 5530276 5600654 5684069 
1105.986 5791542 5929338 6097553 6290104 6495253 6695720 6870157 6998429 
1109.844 7062378 7051971 6968226 6824345 6643601 6452978 6280423 6146515 
1113.701 6063246 6033914 6054107 6113548 6198070 6291785 6377384 6438517 
1117.558 6462159 6441846 6379839 6287583 6185399 6095133 6036266 6020274 
1121.416 6047858 6109785 6189566 6271010 6340332 6391405 6425536 6449783 
1125.273 6473392 6504771 6548733 6605887 6672268 6740980 6804453 6856086 
1129.131 6891533 6910116 6914863 6911126 6905336 6903787 6911294 6931090 
1132.988 6965365 7016444 7086694 7178647 7293432 7429211 7578890 7731791 
1136.846 7872195 7984463 8057164 8085654 8074413 8036574 7991787 7959287 
1140.703 7956114 7992326 8068979 8179170 8310025 8447170 8576213 8687142 
1144.560 8775344 8841516 8891262 8933707 8980216 9041141 9124543 9234021 
1148.418 9366989 9514018 9659336 9784809 9872150 9909233 9893776 9835137 
1152.275 9752582 9671194 9616041 9603574 9638061 9710090 9800873 9887233 
1156.133 9948693 9973849 9960830 9916793 9852965 9781623 9712055 9649545 
1159.990 9596766 9554797 9524009 9503486 9490650 9480321 9465150 9438736 
1163.848 9397427 9342749 9281442 9224138 9179972 9154592 9147147 9151174 
1167.705 9157062 9155945 9143357 9120042 9091519 9064519 9044288 9031533 
1171.562 9021046 9002846 8964994 8896572 8791100 8649453 8480246 8298879 
1175.420 8123193 7970323 7851546 7768895 7714927 7676310 7638304 7588837 
1179.277 7523428 7445154 7362344 7283660 7215535 7159042 7112122 7071606 
1183.135 7037020 7011528 7001932 7014424 7052309 7112829 7188820 7270149 
1186.992 7347179 7414717 7472154 7521878 7567156 7608933 7644239 7667272 
1190.849 7671083 7650073 7601683 7527069 7431098 7320355 7204755 7094776 
1194.707 7002605 6940651 6918128 6938497 6997992 7084235 7177906 7258154 
1198.564 7305663 7307853 7261894 7173830 7057697 6930350 6811084 6716516 
1202.422 6659078 6645384 6675396 6742091 6832726 6933043 7029241 7111819 
1206.279 7177300 7228371 7270721 7310044 7349032 7386845 7419773 7443772 
1210.137 7457861 7464536 7469727 7480109 7499594 7528283 7561998 7593996 
1213.994 7617734 7629637 7630245 7622691 7612305 7604718 7604347 7614160 
1217.851 7635943 7669599 7713342 7763734 7816123 7866662 7914069 7960502 
1221.709 8012678 8078835 8165023 8272537 8395921 8523800 8642693 8743226 
1225.566 8822377 8884328 8938205 8992326 9049836 9106609 9153577 9181834 
1229.424 9188500 9179194 9166199 9163661 9180581 9215135 9253753 9275586 
1233.281 9261167 9198281 9087695 8942670 8784845 8635324 8509068 8411258 
1237.139 8338126 8279055 8222930 8162018 8094059 8022669 7955001 7899727 
1240.996 7864367 7853233 7866325 7899390 7945249 7994182 8036911 8066514 
1244.853 8080252 8079882 8070531 8059121 8050784 8047713 8048050 8047713 
1248.711 8042076 8028845 8008324 7984226 7960738 7940896 7925272 7911436 
1252.568 7895139 7872498 7842167 7805631 7767445 7732736 7706731 7691419 
1256.426 7686833 7690340 7698738 7709632 7722044 7736851 7755874 7780330 
1260.283 7810185 7843483 7876918 7907084 7931176 7947240 7955237 7956047 
1264.141 7950445 7939748 7924765 7906274 7885691 7864401 7844900 7830055 
1267.998 7822836 7825434 7839299 7865177 7901854 7947745 8000257 8056185 
1271.855 8112356 8166035 8215704 8260684 8302189 8341402 8379504 8416190 
1275.713 8450278 8479131 8500181 8512346 8517651 8520084 8525997 8540696 
1279.570 8567156 8603757 8645465 8684201 8714118 8732137 8740420 8744611 
1283.428 8751948 8767974 8793400 8824778 8855110 8878411 8891769 8897180 
1287.285 8901949 8916390 8948623 9003421 9079812 9171749 9270745 9367937 
1291.142 9457226 9535525 9603337 9664317 9723169 9784708 9852423 9927268 
1295.000 10007449 10088460 10163955 10228474 10278786 10316209 10346408 
1298.375 10377967 10419064 10473743 10540310 10611165 10675104 10721189 
1301.750 10743265 10740887 10720102 10690013 10660027 10636291 10621114 
1305.126 10613033 10610249 10610961 10615308 10623321 10634356 10645019 
1308.501 10649976 10643015 10619688 10580031 10528327 10472249 10418861 
1311.876 10372809 10333412 10294969 10249100 10188276 10109588 10015417 
1315.251 9912284 9809278 9714393 9632877 9566246 9513510 9472228 9440158 
1319.109 9416490 9401287 9394921 9396716 9405011 9416997 9430610 9444696 
1322.966 9460070 9478526 9501623 9529564 9560013 9588636 9610858 9623629 
1326.824 9627829 9627897 9632369 9651442 9693217 9763290 9862218 9986632 
1330.681 10130174 10285706 10447031 10609129 10769418 10926743 11081643 
1334.056 11235409 11390386 11548820 11713372 11885580 12065487 12251058 
1337.432 12436742 12614218 12774396 12908862 13014655 13095989 13163949 
1340.807 13231409 13310050 13405039 13515876 13636211 13756956 13869148 
1344.182 13965252 14042213 14101696 14149685 14194086 14243250 14305466 
1347.557 14386460 14490833 14620348 14773418 14944134 15122843 15297267 
1350.932 15454283 15584086 15682530 15752716 15804393 15851885 15910449 
1354.308 15992360 16105304 16251674 16430508 16639920 16879502 17150514 
1357.683 17455186 17795386 18172748 18590208 19056224 19588802 20218250 
1361.058 20981112 21912214 23022376 24281194 25613856 26921992 28117516 
1364.433 29140020 29963816 30580652 30988190 31188400 31190322 31023600 
1367.809 30741482 30427170 30173888 30061560 30149098 30465446 31022532 
1371.184 31831760 32915420 34308372 36044376 38126200 40487052 42971112 
1374.559 45368452 47469212 49133760 50305676 50972980 51134124 50775284 
1377.934 49877936 48450600 46553656 44306988 41853308 39336688 36866704 
1381.310 34508932 32304574 30275410 28431642 26772192 25279876 23922786 
1384.685 22659802 21453916 20283410 19152064 18089732 17137588 16324637 
1388.060 15653331 15098107 14625214 14207233 13828645 13484669 13172898 
1391.435 12888040 12618584 12348407 12061978 11752111 11426205 11106185 
1394.811 10819317 10585973 10409324 10277937 10174606 10085611 10002228 
1398.186 9919674 9833646 9738790 9629862 9506635 9374742 9245089 9128739 
1402.043 9036100 8971556 8933538 8914970 8906413 8900021 8892682 8886662 
1405.901 8885174 8889401 8896910 8903877 8908747 8914462 8927924 8956674 
1409.758 9004673 9068782 9139026 9203020 9251858 9284421 9308150 9333269 
1413.616 9367260 9411851 9463084 9515441 9566788 9622307 9694776 9799957 
1417.473 9947711 10132107 10325880 10492582 10607635 10676633 10726997 
1420.848 10791428 10891203 11034331 11219598 11440867 11691383 11965102 
1424.224 12257772 12565271 12883126 13206234 13531771 13862374 14207335 
1427.599 14583031 15009504 15504791 16078036 16726652 17438596 18199594 
1430.974 18998690 19828042 20679136 21542312 22404312 23255790 24099554 
1434.349 24953664 25855734 26855086 27990414 29249346 30553600 31792686 
1437.724 32888756 33831580 34663292 35443064 36228992 37063580 37970028 
1441.100 38951616 39996708 41085116 42195320 43311552 44424164 45527824 
1444.475 46622044 47710672 48804372 49921872 51086940 52318672 53620184 
1447.850 54974084 56348432 57718212 59084852 60476752 61939724 63515624 
1451.225 65222464 67038096 68902792 70744320 72494272 74121752 75634528 
1454.601 77066304 78456048 79822176 81134216 82296704 83197576 83795816 
1457.976 84145248 84344168 84452824 84488280 84449280 84338656 84168256 
1461.351 83953648 83701184 83398600 83005800 82459736 81685224 80624920 
1464.726 79269752 77649088 75801152 73741096 71449272 68906440 66119128 
1468.102 63137180 60027888 56864884 53694156 50494708 47196044 43700732 
1471.477 39964416 36092976 32382176 29188424 26706966 24893940 23551832 
1474.852 22461322 21477134 20531856 19624472 18782914 18033292 17378550 
1478.227 16800730 16273415 15774947 15294624 14832659 14393687 13981164 
1481.603 13591799 13218872 12856060 12503373 12166849 11856261 11578527 
1484.978 11334231 11115703 10910094 10705329 10495127 10282416 10076929 
1488.353 9886352 9710361 9536914 9349350 9140954 8918859 8700698 8501634 
1492.211 8330222 8184910 8059830 7947543 7842370 7741641 7645487 7554749 
1496.068 7467839 7379464 7283290 7176559 7063927 6955769 6863088 6792235 
1499.925 6741552 6703695 6669004 6629504 6582102 6527038 6466834 6402098 
1503.783 6329640 6241597 6127393 5979355 5808667 5660705 5609012 5693738 
1507.640 5869821 6049571 6176593 6240824 6255749 6244421 6229160 6228622 
1511.498 6251917 6299383 6362724 6430446 6490880 6533327 6548498 6525154 
1515.355 6452204 6323723 6149304 5958225 5789191 5674166 5624485 5632441 
1519.213 5678395 5737819 5782442 5785431 5733521 5636469 5521282 5410723 
1523.070 5311562 5216281 5114784 5001680 4878955 4755896 4644928 4553141 
1526.927 4479049 4412835 4345059 4271638 4196223 4127409 4074360 4042454 
1530.785 4031718 4036969 4049845 4060881 4061818 4048741 4022822 3987743 
1534.642 3946146 3897599 3841669 3778260 3710717 3645556 3592766 3566106 
1538.500 3579168 3638038 3729030 3818303 3867945 3862630 3812922 3738321 
1542.357 3653942 3568879 3491681 3432063 3398768 3396931 3421343 3459015 
1546.214 3493385 3512390 3508750 3481928 3435770 3378765 3321267 3271654 
1550.072 3233531 3204389 3179422 3155992 3136234 3127123 3138237 3177420 
1553.929 3246283 3338762 3443986 3552108 3659356 3768601 3885496 4011218 
1557.787 4130621 4197995 4156679 4007306 3829201 3690432 3606263 3562632 
1561.644 3541285 3527522 3511589 3488374 3456177 3417235 3377062 3342302 
1565.502 3318295 3308045 3312753 3333253 3370283 3424349 3492783 3566273 
1569.359 3629116 3665905 3669714 3645288 3603089 3553044 3500666 3448295 
1573.216 3394861 3338028 3275260 3205324 3129125 3052273 2983074 2928163 
1577.074 2888802 2860784 2838905 2818961 2799052 2778677 2758369 2739729 
1580.931 2724558 2715456 2714189 2720924 2734128 2750066 2763571 2769940 
1584.789 2766539 2754835 2739163 2726092 2721357 2727159 2741664 2759303 
1588.646 2772875 2776909 2769440 2753534 2735128 2720757 2714989 2719757 
1592.504 2733928 2755268 2782378 2815059 2854380 2900676 2952515 3005026 
1596.361 3051372 3085241 3102561 3103128 3091048 3072861 3055743 3045899 
1600.218 3046400 3056310 3071526 3086309 3095152 3095619 3088879 3079869 
1604.076 3076064 3083539 3105030 3138503 3177019 3210498 3228123 3223116 
1607.933 3194342 3147348 3092149 3038525 2992549 2955217 2923559 2893538 
1611.791 2862552 2830567 2799386 2771641 2748733 2729760 2711555 2689683 
1615.648 2660679 2624442 2585276 2549245 2519250 2493356 2467230 2436674 
1619.505 2400856 2360977 2320301 2282461 2249953 2222576 2196966 2167095 
1623.363 2129202 2084153 2037079 1993505 1957524 1929333 1905371 1880445 
1627.220 1849432 1810634 1766284 1722903 1687710 1666455 1660934 1669582 
1631.078 1688342 1712259 1735811 1754407 1764654 1765220 1757934 1749317 
1634.935 1750615 1772672 1816290 1867201 1905904 1918750 1902409 1862110 
1638.793 1807573 1750814 1702712 1673008 1665324 1677997 1704375 1737308 
1642.650 1771009 1803447 1836055 1872093 1912793 1955926 1992373 2008351 
1646.507 1993738 1952631 1904140 1869630 1860845 1876119 1908666 1949702 
1650.365 1992739 2031919 2061714 2074765 2059917 2007552 1924607 1838318 
1654.222 1771674 1729457 1706836 1697988 1698886 1706604 1718745 1733482 
1658.080 1749617 1767515 1788841 1815991 1850397 1891827 1937654 1982421 
1661.937 2018371 2039443 2042605 2030221 2007053 1977195 1942513 1902010 
1665.795 1853558 1794764 1725432 1648162 1569476 1501410 1458621 1453867 
1669.652 1489806 1555942 1633993 1704242 1752644 1772073 1759963 1718213 
1673.509 1652785 1576193 1506597 1464871 1463575 1498517 1551718 1602631 
1677.367 1638550 1654581 1653151 1641410 1630102 1629005 1644537 1677664 
1681.224 1725265 1781322 1839382 1893258 1934559 1954728 1950068 1929533 
1685.082 1908666 1897184 1897118 1905937 1919449 1933194 1943578 1948437 
1688.939 1947971 1945375 1945442 1951999 1966311 1986049 2006820 2023663 
1692.797 2032918 2033217 2026360 2017538 2015341 2029522 2065842 2120611 
1696.654 2183413 2246023 2307677 2375402 2461632 2580576 2739163 2924526 
1700.511 3103428 3244246 3338863 3397432 3432564 3451501 3454607 3437841 
1704.369 3396163 3328278 3240340 3145779 3060381 2993750 2948111 2920557 
1708.226 2906113 2901343 2904012 2913685 2929397 2949879 2972398 2993383 
1712.084 3009497 3017705 3016104 3003859 2979971 2943441 2891970 2821563 
1715.941 2728326 2611209 2477494 2343853 2231835 2155141 2112121 2089514 
1719.798 2071236 2046467 2009349 1959953 1903907 1851594 1816157 1808904 
1723.656 1836953 1899015 1987447 2089480 2192770 2285992 2359744 2408719 
1727.513 2430210 2424879 2396858 2354247 2307010 2264908 2235265 2220811 
1731.371 2221078 2235066 2264275 2314805 2394626 2504587 2628709 2740263 
1735.228 2819062 2859383 2866754 2849144 2815727 2776076 2741197 2722958 
1739.086 2729493 2760003 2803387 2843141 2862285 2849811 2802020 2721291 
1742.943 2615742 2496788 2377101 2266307 2169193 2085984 2013111 1945475 
1746.800 1878083 1808139 1735711 1665025 1603163 1558602 1538085 1543306 
1750.658 1568478 1602066 1630534 1642740 1634758 1607387 1564687 1510786 
1754.515 1449479 1383493 1314625 1246234 1182439 1127755 1086132 1059094 
1758.373 1046074 1045443 1054843 1071616 1091978 1110215 1119483 1113603 
1762.230 1091081 1055806 1015817 979020 951458 935320 928579 927118 925059 
1766.570 917522 903510 887706 880036 891557 930106 997119 1087660 1191110 
1770.909 1290963 1368070 1405332 1396124 1349290 1283253 1215797 1158086 
1774.767 1116261 1093805 1092642 1112374 1149481 1196061 1240353 1270791 
1778.624 1277471 1256236 1211345 1155694 1105896 1074473 1064375 1068062 
1782.482 1071915 1061153 1026312 965704 887108 803779 730357 676759 645101 
1786.821 632193 632591 642115 659072 684326 719239 764113 816825 870972 
1791.161 916293 942559 943787 922137 886710 848496 816062 793755 782502 
1795.500 780510 783763 786651 782634 765474 730258 674801 601135 515639 
1799.840 428501 352523 299204 275364 281498 312765 359752 411587 458154 
1804.180 491423 507280 507246 498622 493049 503233 539293 603724 689669 
1808.519 780842 857526 902016 904672 868117 806800 741011 687113 652667 
1812.859 634649 623300 607373 580166 540719 494276 448535 410890 385088 
1817.198 370629 363533 359785 357365 356735 359520 366915 378423 392219 
1821.538 407043 423692 445715 478785 526985 589058 655753 710278 735137 
1825.878 718741 660333 568919 460276 352954 266512 222054 235050 310676 
1830.217 436229 586105 729660 841624 906897 918020 875488 788244 673772 
1834.557 554885 455301 392981 372851 386216 413742 433742 428734 393578 
1838.896 335611 272016 221955 200573 216618 270656 355673 458220 561819 
1843.236 648884 705067 725844 716451 689901 659934 636706 625225 625756 
1847.576 635710 650377 663717 669259 661361 636109 592243 531065 456628 
1851.915 376300 299303 236807 197722 186584 201269 233856 272447 304277 
1856.255 320723 318932 303613 285212 276923 288428 322978 375504 434107 
1860.594 483628 510099 505986 471753 415368 347748 281299 226530 189435 
1864.934 173358 178562 203424 245161 301326 367545 438485 507943 570843 
1869.274 625490 673839 719073 762851 804178 838370 860282 865527 852978 
1873.613 826453 793755 764810 747882 747616 764046 792958 828511 865361 
1877.953 899924 929708 952388 964375 960656 936316 888735 818651 730291 
1882.292 631496 530534 434571 348378 274071 212175 162420 125032 100706 
1886.632 90133 92321 104782 123872 146642 172994 207468 255836 324437 414837 
1891.454 522738 638962 752130 849990 920842 956273 950096 900422 809987 
1895.793 686250 541051 388007 243537 123972 43407 11795 31379 96165 193280 
1900.615 306896 420077 517630 588162 622205 614905 566796 485154 383961 
1904.955 281531 199081 152277 148664 182640 239393 297612 338861 355342 
1909.294 351296 340618 339259 357166 392152 432680 460873 461537 427938 
1913.634 363267 279277 192518 118172 64119 32803 20642 21835 30749 44435 
1918.456 62163 85096 115156 153106 199811 253151 308786 358061 390593 395999 
1923.277 370265 319496 259881 212507 198750 233624 320856 450193 598548 
1927.617 738223 840761 885182 864266 782767 656417 505754 351130 206374 
1931.957 79827 -26572 -114661 -187067 -245884 -290091 -315752 -318367 
1935.814 -293071 -239890 -166731 -90380 -34723 -23955 -76201 -195645 -371671 
1940.154 -577539 -774082 -922002 -987728 -958933 -850413 -699393 -551894 
1944.011 -449396 -419771 -471374 -596665 -772429 -966338 -1139309 -1251324 
1947.869 -1271147 -1179922 -978207 -685499 -337769 25348 369270 670653 
1951.726 923963 1137455 1327088 1506796 1681423 1841845 1968175 2032851 
1955.583 2014942 1905704 1717016 1477738 1227460 1004957 836777 730457 
1959.441 673872 640854 600671 529605 421702 287068 146576 19947 -81170 
1963.780 -161332 -235353 -322274 -431058 -552688 -658569 -711599 -677460 
1967.638 -544084 -327274 -66163 197258 428203 608867 734606 805174 821307 
1971.977 781141 687113 554222 417026 328416 345327 507213 814568 1218389 
1976.317 1630102 1946307 2093509 2043138 1822313 1491868 1127024 784294 
1980.174 485452 223314 -21635 -265885 -507052 -727246 -898724 -999133 
1984.032 -1021281 -971760 -862483 -702535 -495071 -244361 36614 311405 
1987.889 525193 618821 544534 290881 -105750 -558049 -955164 -1184317 
1991.747 -1176386 -932450 -519793 -47511 376366 667633 790568 753690 599078 
1996.086 381275 155989 -29885 -145831 -174746 -115191 21239 206673 402002 
2000.426 563080 643508 610857 456561 202164 -104525 -398982 -616220 -713286 
2004.766 -674879 -521547 -299229 -72126 105379 202330 216319 165966 77805 
2009.105 -32006 -165108 -341080 -585977 -912909 -1309039 -1729990 -2107900 
2012.963 -2364919 -2443442 -2326954 -2049730 -1688735 -1342865 -1110755 
2016.338 -1054865 -1190628 -1474972 -1829117 -2152577 -2360833 -2403573 
2019.713 -2265123 -1962528 -1536916 -1043825 -537995 -66461 337535 656516 
2023.570 882161 1013592 1055773 1023356 941496 843848 769822 749409 794684 
2027.910 888536 989614 1038933 981876 793223 492750 144355 -162790 -332207 
2032.250 -297210 -44562 377428 880335 1359328 1722671 1920381 1943145 
2036.107 1820649 1604294 1355473 1125994 951989 852214 827282 861743 926022 
2040.447 982507 994894 941795 824959 672412 531795 449065 458253 561919 
2044.786 731254 912442 1049296 1099220 1044480 896670 686748 456197 240454 
2049.126 66571 -47577 -89386 -48803 79926 290848 559497 843915 1091746 
2053.465 1250321 1288969 1206893 1038003 836777 665410 570279 567227 642944 
2057.805 761955 882526 967165 995658 965770 888536 782303 665742 556013 
2062.145 466313 410260 398785 438949 528842 655156 793755 912110 979884 
2066.484 976629 898662 760428 593438 438352 331831 302353 360084 494210 
2070.824 675498 864863 1022626 1119417 1143070 1099020 1007946 895807 787448 
2075.163 699160 636573 596723 572801 559497 554421 558435 572303 594234 
2079.503 619484 641484 654857 658242 654724 649747 646760 645367 639195 
2083.843 620579 582522 525094 456495 391456 343835 322414 326161 344565 
2088.182 362538 365390 347748 312367 270192 234354 216120 219137 242111 
2092.522 280968 332461 397956 481903 588328 717613 863104 1010703 1141874 
2096.861 1238957 1290298 1292259 1249557 1171508 1069125 950827 822568 
2100.719 689503 557672 435433 334716 266247 238299 252123 301326 371226 
2105.058 444090 503033 537368 545231 533951 515540 501275 497029 499418 
2109.398 497394 476994 427208 347284 248278 150984 80655 58551 93680 180883 
2114.220 300497 428336 539060 615370 651605 651638 624760 581892 530634 
2118.559 473810 411388 343503 272347 204219 149427 117476 116614 149791 
2122.899 213004 296319 385984 466910 526388 558136 562649 548117 525625 
2127.239 507611 501441 507346 516800 517663 498190 453709 390726 326625 
2131.578 285941 290218 353319 472483 631131 800394 949266 1053282 1098887 
2135.918 1087328 1031659 952620 872201 809987 780477 790999 838669 910217 
2140.257 985496 1037671 1044114 992370 887772 750670 614408 512886 465451 
2144.597 468502 493546 495802 427971 259649 -10702 -346940 -686160 -956255 
2148.937 -1089405 -1042999 -806792 -406000 110018 671416 1204035 1646233 
2152.794 1946074 2071735 2009616 1762924 1352448 814800 202297 -427516 
2156.651 -1012918 -1491879 -1813511 -1939867 -1855018 -1569107 -1116439 
2160.027 -546731 80191 696439 1235103 1635058 1848067 1861245 1698753 
2163.884 1426141 1127722 896438 798501 856099 1040793 1283021 1501643 
2167.741 1628339 1633228 1534427 1386119 1251451 1180279 1185728 1239024 
2171.599 1281159 1249457 1104601 848396 526487 208761 -25943 -128077 -87034 
2175.938 66339 279011 489201 648187 733776 743235 689569 588693 454107 
2180.278 294528 118901 -58146 -216344 -330485 -379219 -354124 -261944 
2184.135 -126553 20841 148200 236210 283222 307360 338032 406280 532658 
2188.475 718310 940765 1158784 1326490 1403902 1370197 1232511 1022659 
2192.333 788809 580399 437987 376665 387609 440840 498887 527283 505455 
2196.672 429463 313726 182176 59313 -32006 -75671 -64540 3876 125430 290185 
2201.494 480974 677456 855767 995924 1088125 1135429 1156558 1178385 1230783 
2205.833 1333304 1488543 1678596 1869597 2020002 2091212 2060449 1925939 
2209.691 1705772 1431560 1141907 872367 646760 478984 368739 307360 280338 
2214.031 274867 281332 294827 316479 349638 397193 459082 529639 598216 
2218.370 652999 683828 686284 666273 636938 612981 605814 615602 629605 
2222.710 623665 573000 461769 292075 88476 -111912 -264229 -335286 -313301 
2227.049 -212072 -63579 89868 212242 286869 316014 319198 320723 339823 
2231.389 383065 443327 503465 546691 562516 549975 517530 480145 453444 
2235.729 449430 475899 536008 627813 745525 878476 1011998 1127489 1207358 
2240.068 1238691 1216030 1143734 1033054 898530 752628 602795 451487 297148 
2244.408 140113 -15373 -160007 -279793 -362103 -398518 -387131 -333995 
2248.265 -249262 -145500 -34226 74922 174916 260246 327255 373448 398221 
2252.605 401803 385818 352556 305835 251096 197125 156155 141803 167093 
2256.944 238796 355209 502868 661594 809058 927483 1010105 1061120 1092642 
2261.284 1116992 1140578 1159681 1162637 1135063 1068826 967364 847965 
2265.141 735734 656815 629903 658872 734805 838005 947407 1043517 1114234 
2269.481 1153601 1161541 1140013 1093373 1027143 948934 867586 792493 729561 
2273.821 680277 641252 605814 568687 529141 492352 468934 469133 497461 
2278.160 549842 612583 666372 692523 680542 630899 556743 477127 412714 
2282.500 377892 377129 404357 447739 493447 531198 557174 574592 590618 
2286.839 611986 642546 680708 720732 754719 776560 784858 783332 779282 
2291.179 781307 794850 820278 852347 881663 899260 899094 880833 849293 
2295.519 814203 785091 769623 772046 791796 826386 871371 922004 973773 
2299.858 1021496 1058828 1079455 1077496 1049562 996156 922635 837740 752728 
2304.198 678485 623898 595263 595395 623931 677622 749774 830204 906631 
2308.537 967165 1002333 1008378 989116 953815 914069 879837 854804 836511 
2312.877 816991 788443 747948 700189 657545 634848 645300 694912 780112 
2317.217 888735 1005754 1115995 1208521 1279232 1327687 1355971 1365809 
2321.074 1357600 1331609 1289800 1237362 1181342 1128984 1084969 1049993 
2324.931 1020832 992869 963114 931501 902049 880036 870574 875122 890329 
2329.271 910018 926952 937013 940035 939836 941728 949797 965106 985795 
2333.611 1009939 1037538 1071550 1118553 1184166 1270459 1373621 1483257 
2337.468 1584374 1663362 1711028 1726097 1714421 1685980 1650191 1612309 
2341.325 1571571 1522623 1459186 1377576 1279963 1174199 1071484 983869 
2345.183 919514 880800 865129 866191 877944 896205 918950 945647 976297 
2349.522 1010271 1045443 1078824 1106727 1126393 1136724 1139747 1138385 
2353.380 1135562 1131741 1124200 1108155 1079588 1036807 983703 927251 
2357.237 874989 832362 798701 767532 729561 679115 616166 550771 499783 
2361.577 482799 514644 599941 731054 889864 1052219 1194499 1300567 1362818 
2365.917 1382097 1364779 1319179 1253146 1172704 1083142 989979 900920 
2369.774 825556 774303 756877 780444 846172 948868 1077097 1214867 1342510 
2374.114 1441965 1499847 1508758 1470490 1393764 1293489 1185263 1083674 
2377.971 999378 937212 897899 879339 878509 892520 918850 954845 996422 
2382.311 1037937 1072480 1093406 1096828 1082412 1054776 1021397 991440 
2386.168 972445 967796 976197 992337 1009075 1019537 1020135 1011101 996389 
2390.508 981577 972943 974471 988219 1012795 1044779 1079123 1110016 1131442 
2394.847 1138153 1126027 1093573 1042753 979386 912342 853044 812012 796609 
2399.187 809124 845641 897135 951159 995924 1023257 1030098 1018806 996289 
2403.526 971382 951093 940300 940267 949764 966036 987190 1011433 1037405 
2407.866 1062947 1083607 1093406 1085899 1056437 1005090 936980 862174 
2411.723 793024 739750 708187 697633 702479 714626 728466 742339 759665 
2416.063 786219 827183 883024 948137 1011367 1059493 1082179 1074606 1039597 
2420.403 986459 928247 877280 843317 831366 842055 872665 917787 971515 
2424.742 1026412 1075038 1110680 1128685 1127223 1108521 1078459 1043483 
2428.600 1009972 981345 956804 932896 905104 869345 825025 774037 721131 
2432.939 672412 633321 608734 602098 615934 650776 705665 777025 857626 
2437.279 938042 1007913 1057168 1079455 1073144 1041690 992603 935652 881563 
2441.618 838570 812842 806435 817855 841923 870242 894379 905934 900688 
2445.958 878974 845574 808560 776958 757773 753989 765274 788112 818983 
2450.298 854704 893483 933859 973574 1008577 1034084 1045841 1042387 1026445 
2454.637 1004326 982872 967630 960125 957136 953317 944418 930306 915994 
2458.977 909520 918651 946643 990278 1039498 1081349 1105431 1106362 1086132 
2463.316 1052451 1014688 980415 952554 929741 908690 886477 862971 840927 
2467.656 825025 819050 824461 839665 861278 885913 911047 935685 959660 
2471.996 981610 998780 1006385 999378 974205 930571 872234 806203 742206 
2476.335 689436 655189 644471 658176 694049 746554 808560 871404 927184 
2480.675 969921 996322 1006651 1003064 989548 969622 946178 921440 897135 
2485.014 875985 860747 853741 854804 860747 865262 860249 839997 803116 
2489.354 755184 707059 671781 660167 676394 716584 769855 823332 866324 
2493.694 893848 908324 916858 927317 944318 967231 990212 1005522 1006219 
2498.033 989913 959162 920377 880434 845110 816128 792792 772876 754985 
2502.373 740082 731121 731386 742903 764445 792062 820012 843915 862174 
2506.712 878110 898397 930140 977659 1040129 1109750 1173535 1217425 1230650 
2511.052 1209517 1158883 1090882 1021696 965704 932364 923532 934058 953749 
2515.392 972379 982673 981146 969489 951790 933161 916393 902680 890860 
2519.731 879007 865760 850787 835349 821606 812045 808892 813771 827282 
2524.071 849957 881431 921208 968228 1020400 1076167 1133303 1189582 1242911 
2528.410 1290764 1329980 1357001 1367604 1358298 1327122 1275277 1206560 
2532.268 1128785 1052285 986824 941529 921208 925425 948602 981644 1013559 
2536.607 1035180 1041789 1034250 1019205 1006086 1004426 1020733 1055374 
2540.465 1102807 1153468 1197257 1225666 1235601 1228955 1211943 1191808 
2544.322 1176026 1169714 1175462 1193802 1224004 1264544 1312565 1363981 
2548.180 1413243 1453335 1478137 1483456 1468595 1436015 1391703 1342211 
2552.037 1293987 1251950 1220050 1200746 1196659 1209252 1239024 1283552 
2555.895 1337525 1392767 1440170 1473216 1488876 1489873 1482193 1473349 
2559.752 1468861 1469326 1470856 1467165 1452072 1422850 1382230 1337425 
2563.609 1298141 1272686 1266073 1278700 1307214 1345834 1389509 1434718 
2567.467 1479533 1523222 1564554 1600935 1628639 1643705 1643406 1628073 
2571.324 1601135 1568877 1538418 1516339 1506497 1509357 1522291 1540812 
2575.182 1560265 1577424 1591856 1605791 1623151 1648627 1685714 1735578 
2579.039 1796327 1863474 1930165 1989045 2033151 2057420 2059783 2042073 
2582.896 2008717 1967975 1929034 1900279 1887434 1891893 1910263 1935257 
2586.754 1958356 1972302 1973134 1961518 1941781 1920713 1903940 1895188 
2590.611 1895654 1903973 1918583 1938652 1964813 1997533 2036447 2078494 
2594.469 2117648 2146783 2159237 2151711 2125240 2085751 2041873 2001793 
2598.326 1972335 1956292 1953929 1963315 1982221 2008817 2041640 2079226 
2602.184 2118580 2156040 2187209 2208822 2219646 2221078 2217148 2212652 
2606.041 2212352 2219379 2235365 2259445 2290022 2324299 2358711 2388595 
2609.898 2409286 2416183 2406820 2381732 2345019 2303912 2266107 2238862 
2613.756 2225241 2224408 2232867 2245257 2258147 2270504 2284093 2301381 
2617.613 2324032 2350882 2377468 2398191 2408386 2405954 2392993 2375136 
2621.471 2359311 2350416 2350549 2357745 2367740 2375935 2379234 2378034 
2625.328 2375302 2375402 2381466 2394959 2414517 2436174 2455634 2469529 
2629.186 2476361 2476894 2473761 2470596 2470996 2477694 2492023 2514551 
2633.043 2543579 2576909 2611142 2642343 2666513 2681182 2685549 2680915 
2636.900 2670213 2657778 2647711 2643010 2644744 2652111 2663046 2674447 
2640.758 2684249 2691184 2695151 2697018 2697752 2698552 2699886 2701786 
2644.615 2704287 2707421 2711822 2718357 2728460 2742931 2762537 2786914 
2648.473 2814926 2845075 2875426 2904379 2930698 2953716 2973565 2990880 
2652.330 3006661 3021976 3037925 3054975 3073328 3092149 3110303 3126222 
2656.188 3138503 3146013 3148750 3147114 3142275 3135733 3128825 3122484 
2660.045 3117378 3114074 3113006 3115075 3121149 3132096 3147815 3167473 
2663.902 3189202 3210164 3227889 3240608 3248152 3251991 3254628 3259068 
2667.760 3267314 3280034 3295759 3311751 3324305 3330115 3327243 3315791 
2671.617 3297628 3276562 3257266 3244213 3241008 3249654 3269885 3298863 
2675.475 3332151 3363972 3388650 3401573 3400938 3387481 3364841 3338462 
2679.332 3313854 3295492 3285576 3283506 3286945 3292453 3297027 3298730 
2683.189 3297461 3294089 3290350 3287579 3286711 3287913 3291352 3296593 
2687.047 3303872 3313120 3323737 3334455 3342802 3345741 3340365 3325273 
2690.904 3300767 3269785 3236936 3207761 3187834 3180357 3186031 3202754 
2694.762 3226454 3251257 3271754 3283973 3285743 3277530 3261672 3241642 
2698.619 3221013 3202854 3188601 3178822 3173181 3170878 3171879 3176452 
2702.477 3185364 3199149 3217474 3239239 3262273 3284074 3302436 3316258 
2706.334 3326041 3333220 3340465 3350149 3364206 3383607 3407751 3434835 
2710.191 3462289 3486938 3505309 3515063 3515029 3506244 3492549 3479156 
2714.049 3472709 3478621 3499631 3535139 3580939 3630219 3675929 3713056 
2717.906 3739825 3758073 3771743 3785380 3802192 3822449 3843943 3863398 
2721.764 3878141 3887168 3892116 3896429 3904018 3917090 3935613 3956645 
2725.621 3975638 3987442 3988010 3975704 3950994 3916489 3875701 3832644 
2729.479 3790861 3753160 3721778 3698285 3683281 3676431 3676197 3680240 
2733.336 3685486 3689196 3689129 3684417 3675228 3662764 3648028 3631556 
2737.193 3612812 3590895 3564603 3533569 3499096 3464293 3433366 3411024 
2741.051 3401273 3405380 3422044 3446792 3473812 3496624 3510219 3511990 
2744.908 3502369 3484132 3461186 3437440 3416167 3398534 3384843 3374892 
2748.766 3368547 3365909 3367445 3373022 3381336 3389718 3394493 3392456 
2752.623 3381503 3362603 3339397 3317460 3303237 3301367 3313988 3339230 
2756.480 3372821 3408519 3440045 3462923 3474613 3474847 3465361 3449129 
2760.338 3429592 3410489 3395429 3387514 3388650 3399536 3418772 3443519 
2764.195 3470004 3495155 3517368 3537377 3557721 3582008 3612812 3650868 
2768.053 3693707 3737285 3776155 3806170 3825724 3835853 3840299 3843608 
2771.910 3849993 3862095 3880448 3904051 3931133 3960290 3990585 4022321 
2775.768 4056166 4093091 4133865 4178725 4227806 4280138 4334450 4389004 
2779.625 4441790 4491201 4536768 4579392 4621653 4667066 4718881 4779245 
2783.482 4847760 4921881 4997423 5070062 5136677 5196026 5248508 5296301 
2787.340 5341113 5384689 5427766 5471217 5516417 5565749 5622337 5688870 
2791.197 5766728 5854742 5949089 6044632 6135962 6219177 6293264 6359732 
2795.055 6422140 6484288 6549574 6619680 6694812 6773927 6855548 6938228 
2798.912 7021159 7103533 7185486 7267420 7350515 7436929 7528958 7628997 
2802.770 7739077 7859846 7990133 8127649 8268890 8410042 8547827 8679368 
2806.627 8803341 8919400 9028692 9133612 9237744 9345287 9460714 9587112 
2810.484 9726219 9877777 10040272 10211308 10388725 10571102 10757904 
2813.860 10949271 11144938 11344503 11547357 11753234 11962921 12177924 
2817.235 12400840 12633558 12876846 13129080 13386894 13646776 13905993 
2820.610 14164542 14425678 14695368 14981276 15289544 15625404 15990676 
2823.985 16385261 16807480 17255348 17727284 18222814 18742264 19287168 
2827.361 19860680 20467352 21113728 21807226 22555578 23365602 24242058 
2830.736 25187450 26202510 27288248 28446572 29682208 31002674 32417804 
2834.111 33938800 35575960 37338784 39234480 41267844 43441240 45755244 
2837.486 48208728 50798932 53522276 56375180 59353216 62452504 65667636 
2840.862 68991216 72414096 75924184 79508912 83156048 86854432 90595648 
2844.237 94371512 98171936 101983488 105785792 109550040 113243032 116823152 
2847.612 120244672 123460120 126416552 129059288 131334440 133187520 
2850.505 134572096 135452320 135805904 135628016 134931136 133744496 
2853.398 132108512 130075392 127704320 125054328 122188632 119167096 
2856.291 116045136 112875760 109703968 106568248 103501144 100526240 
2859.184 97662680 94925232 92325232 89874152 87583136 85463088 83525616 
2862.560 81780768 80236016 78895960 77760088 76822472 76071128 75489472 
2865.935 75056016 74746088 74534480 74395128 74301584 74228816 74149848 
2869.310 74038520 73868920 73615776 73258472 72781904 72178224 71449152 
2872.685 70604464 69662400 68645880 67582872 66503236 65435440 64408540 
2876.061 63447484 62572920 61802064 61145572 60610828 60201520 59919620 
2879.436 59766056 59741724 59846716 60079704 60437104 60913572 61501484 
2882.811 62192956 62981060 63859976 64826524 65878400 67013204 68226848 
2886.186 69512784 70862064 72264224 73708384 75184744 76686504 78208496 
2889.562 79747280 81300720 82865752 84438416 86013320 87583864 89142856 
2892.937 90683464 92199512 93687248 95145568 96577640 97989408 99390536 
2896.312 100790560 102197712 103615872 105044328 106477208 107906464 
2899.205 109325472 110730368 112123040 113509272 114898048 116298288 
2902.098 117716480 119157544 120624408 122120416 123650368 125219760 
2904.991 126834600 128498184 130210552 131967960 133764816 135596320 
2907.884 137460176 139358992 141298240 143284928 145324592 147418640 
2910.777 149563600 151752080 153973264 156214336 158463200 160706528 
2913.670 162930880 165122720 167266512 169345376 171339408 173223872 
2916.563 174970864 176546928 177914160 179035328 179873200 180394432 
2919.457 180570144 180374448 179784560 178782112 177354976 175503504 
2922.350 173244096 170613376 167660976 164448224 161037600 157481888 
2925.243 153824448 150096608 146319792 142512448 138692592 134879424 
2928.136 131094456 127357928 123687856 120098512 116599256 113195344 
2931.029 109889384 106681296 103570368 100555064 97634512 94807864 92074816 
2934.404 89435104 86889360 84439016 82086832 79837464 77696400 75669992 
2937.779 73763712 71979744 70317640 68773928 67344120 66025420 64818948 
2941.155 63730372 62770276 61949240 61277304 60759428 60394492 60176628 
2944.530 60096600 60144320 60310692 60588164 60969576 61446824 62009084 
2947.905 62642804 63331268 64057612 64804136 65553800 66289968 66993944 
2951.280 67644784 68220128 68695128 69047024 69258272 69316888 69219720 
2954.656 68970400 68577976 68054776 67414968 66673800 65844664 64941636 
2958.031 63975676 62954664 61883172 60761260 59586672 58355780 57066052 
2961.406 55717272 54311792 52854976 51354656 49819592 48259604 46683948 
2964.781 45101012 43517672 41939716 40371584 38817864 37284844 35779916 
2968.156 34312820 32893724 31530588 30229124 28990304 27811490 26688256 
2971.532 25615648 24589966 23609136 22672194 21778030 20924922 20110860 
2974.907 19333864 18594220 17894020 17237074 16627010 16065039 15548301 
2978.282 15069908 14621273 14193265 13780657 13382179 13000111 12638470 
2981.657 12299696 11983597 11686821 11404298 11131374 10865586 10607838 
2985.033 10360321 10125562 9903742 9692641 9487535 9283406 9076902 8867284 
2988.890 8656213 8446967 8242786 8045350 7855393 7672567 7496695 7328645 
2992.748 7169586 7020384 6880357 6747071 6616753 6485499 6351528 6216253 
2996.605 6083911 5960879 5852659 5762665 5690179 5630729 5575952 5517725 
3000.462 5447897 5360871 5254444 5129569 4990083 4841293 4690410 4544469 
3004.320 4410057 4292184 4193713 4115334 4055229 4010248 3976106 3948119 
3008.177 3922306 3895359 3865237 3830939 3792432 3750453 3705837 3658587 
3012.035 3608401 3553745 3493017 3425584 3352119 3275160 3198715 3126656 
3015.892 3061683 3004226 2952648 2903845 2855581 2807889 2763838 2728660 
3019.750 2708088 2705354 2719324 2743997 2770073 2786980 2786647 2765805 
3023.607 2726926 2677715 2627576 2586242 2560211 2551012 2555778 2568177 
3027.464 2579843 2582942 2572143 2545579 2504886 2455167 2403355 2356113 
3031.322 2318336 2291988 2275500 2265374 2257147 2248055 2236697 2223209 
3035.179 2208789 2193570 2176286 2153742 2122409 2079659 2025727 1964181 
3039.037 1901045 1844507 1801185 1775633 1769046 1778960 1801185 1829933 
3042.894 1859714 1885970 1904939 1914257 1912693 1900945 1880811 1856054 
3046.751 1831497 1811632 1800153 1797991 1803281 1811233 1815692 1810634 
3050.609 1792002 1759464 1716217 1668850 1625313 1592588 1574530 1571039 
3054.466 1577257 1586236 1590593 1585205 1569276 1546232 1522158 1503172 
3058.324 1492998 1491635 1495226 1498052 1494162 1481062 1458854 1431194 
3062.181 1403271 1380401 1365776 1360392 1363150 1372291 1385254 1400113 
3066.039 1415903 1431494 1446054 1458887 1469393 1476607 1480530 1480663 
3069.896 1476441 1467897 1455031 1438774 1420623 1402573 1386119 1371493 
3073.753 1357533 1341978 1322901 1300900 1278667 1262284 1258297 1271489 
3077.611 1302628 1347728 1398684 1446021 1482226 1503505 1509988 1503638 
3081.468 1486482 1458355 1416800 1359361 1286244 1202540 1118619 1046705 
3085.326 998049 978157 985396 1011367 1044048 1072879 1090948 1097359 
3089.183 1095200 1089487 1084172 1080751 1078857 1078027 1078857 1083176 
3093.041 1093805 1111477 1133901 1155827 1169614 1169415 1152604 1122274 
3096.898 1084969 1048864 1020533 1002433 992935 987555 981378 971415 958000 
3101.238 943488 931501 924462 922635 923963 925026 922801 915696 904207 
3105.577 890627 878376 871105 871205 879704 895707 916194 937445 955708 
3109.917 967696 972379 970685 965471 959926 956904 958398 964276 973873 
3114.256 986260 1001404 1020035 1043483 1071484 1102176 1131642 1154863 
3118.114 1166990 1165694 1151807 1128818 1101379 1074141 1050027 1030165 
3121.971 1014190 1001603 992404 987555 988120 994097 1004060 1015020 1023356 
3126.311 1026146 1022393 1013492 1002201 991308 982673 976397 970785 963645 
3130.650 953317 939005 921739 903045 885415 870906 862241 861577 870640 
3134.990 890959 922170 961818 1004824 1044413 1074108 1088789 1087294 
3138.847 1072148 1050027 1028803 1015950 1015983 1029999 1054544 1083176 
3142.705 1108986 1124998 1126758 1112706 1084637 1046008 1002068 957734 
3146.562 916924 881597 852679 829573 812244 800659 795680 798468 809091 
3150.902 826652 848928 872300 893682 910649 922569 930339 935984 941529 
3155.241 948270 957037 967696 979917 992968 1005754 1016349 1022725 1023057 
3159.581 1016216 1003429 987954 974969 968991 972744 985762 1004326 1022891 
3163.921 1037206 1046107 1051754 1058994 1072712 1094968 1123503 1152039 
3167.778 1172206 1178784 1169947 1149448 1124532 1103173 1090948 1088324 
3171.635 1092642 1098290 1100548 1096861 1086564 1071251 1052385 1030331 
3175.493 1004725 975367 943820 914434 893217 886245 897035 924893 964143 
3179.833 1006086 1041490 1062847 1066601 1053448 1027475 994728 962018 
3183.690 935187 918651 913869 919547 931003 941463 942691 928546 896405 
3188.030 849625 796643 750239 722724 722525 751301 803547 867619 929177 
3192.369 976563 1002101 1003994 985928 954845 918551 883688 855401 835847 
3196.709 826320 826419 834984 850123 869279 889698 908490 923001 931235 
3201.048 931501 923001 905469 879704 848164 813705 781041 754653 738057 
3205.388 732349 736265 745791 755815 762354 762221 755682 744828 733743 
3209.728 726043 723819 727437 735104 744397 752230 756047 754354 746554 
3214.067 732647 713829 692025 669890 650643 637602 633620 640057 656749 
3218.407 680808 707457 731619 747550 751732 742804 722491 694182 663153 
3222.746 635113 614441 604354 605880 618091 638465 663419 688673 710178 
3227.086 725014 730988 727437 715821 698397 678352 659038 642247 628908 
3231.426 617925 607307 594665 578740 560028 540951 525658 518857 524662 
3235.765 544800 578706 622803 671184 716252 750504 767498 762918 735966 
3240.105 689569 629572 564573 503199 453311 419745 404091 405086 419182 
3244.444 441569 468337 496001 522373 546259 566033 580929 591082 597021 
3248.784 600737 605482 614308 628443 646893 665874 680045 684027 674635 
3253.124 651638 619252 584247 553392 532425 523634 525558 533653 542577 
3257.463 546923 543473 531795 513748 493447 474971 462797 459646 466744 
3261.803 483230 506749 534913 564639 594002 621542 646362 667534 684492 
3266.142 696206 702346 703674 701649 698795 697700 699426 703010 705698 
3270.482 703740 694282 676626 653497 630534 613678 607307 611919 623864 
3274.822 636474 641982 635445 615901 586702 553724 523435 500479 485851 
3279.161 477790 472947 468303 461935 454240 446346 439911 435666 432913 
3283.501 430326 427175 423261 419712 419281 424256 436329 455301 479150 
3287.840 504460 526686 541781 547586 544037 533719 521113 511924 511459 
3292.180 522838 545994 577578 612085 642977 665244 676328 677589 672379 
3296.520 665509 661262 661229 664315 667368 667069 660432 646993 628742 
3300.859 609397 592940 582290 578939 582422 590750 601600 612881 623134 
3305.199 631728 638365 643575 647192 649515 650311 649548 646959 642247 
3309.538 635345 625590 613047 598315 582157 566563 554122 547288 547785 
3313.878 555914 570213 587631 604354 616598 622305 621542 616332 610492 
3318.218 607672 609331 615436 622438 626419 623466 611853 593736 573531 
3322.557 557672 551534 558866 578740 608302 641551 673208 699160 717978 
3326.897 730258 737327 740613 740016 733809 719339 693850 655886 606477 
3331.236 548913 489168 434471 391423 365622 359885 373249 401505 438717 
3335.576 476928 509204 530866 539558 535909 522705 503597 483396 466081 
3339.916 455069 453046 460907 477491 499915 522539 539890 547089 542544 
3344.255 528809 511360 498224 495868 507644 531928 563047 593239 615469 
3348.595 626021 625225 616233 603392 589655 575621 559795 540520 517663 
3352.934 493712 474572 465384 470559 490196 520449 554587 585409 608103 
3357.274 620944 625258 624030 619650 613080 603126 588361 568753 545662 
3361.614 523137 505024 494774 492850 497361 503664 507412 505521 497029 
3365.953 483429 467673 453178 442166 435632 433941 436627 443294 453410 
3370.293 465948 479349 491092 498622 499783 493579 480643 462731 442564 
3374.632 423327 407043 395137 388040 385586 386780 390693 395236 398918 
3378.972 400178 397956 391920 383231 373448 364561 358326 356270 359023 
3383.312 367777 382701 404954 434903 471654 512819 554520 591115 617859 
3387.651 630733 629107 615138 592973 568222 545563 527914 516435 510564 
3391.991 509071 510696 514611 519985 525658 530037 531065 526985 517497 
3396.330 504161 490959 482268 482301 492717 511758 534548 554951 566696 
3400.670 565701 551169 525890 494575 462797 435964 417557 409232 411719 
3405.010 424157 445649 474539 508142 543174 575190 599875 613611 615370 
3409.349 606046 589058 569284 551136 538463 532425 532060 535345 539160 
3413.689 541847 542146 540586 537667 534648 531098 526255 518592 506450 
3418.028 489134 467043 441669 416031 392981 375571 364726 361112 363698 
3422.368 371425 383231 398354 417059 439413 464920 492253 518923 541018 
3426.708 553890 553459 537003 504128 457722 402765 346620 297413 261904 
3431.047 244664 247018 266413 297645 333953 368772 396795 415135 422963 
3435.387 421503 413013 399979 384922 370696 359354 352821 352921 359951 
3439.726 373150 390627 409000 425085 436627 442730 444389 443924 443758 
3444.066 444886 447009 448203 446412 439612 427805 412681 397425 384425 
3448.406 375239 369701 366484 364627 364229 366749 374045 387211 405285 
3452.745 424190 437092 437523 420541 385022 335578 281233 231933 197788 
3457.085 185192 195070 223347 262500 304078 340121 365788 379185 382402 
3461.424 379152 374841 374377 380976 395336 415633 438054 456827 466943 
3465.764 464854 449895 424024 392849 362770 340154 330074 334484 352722 
3470.104 382037 417623 454837 488537 514710 530534 534416 525989 506351 
3474.443 477989 443957 408436 375239 347980 328847 319098 317374 321552 
3478.783 326890 329742 326426 315318 298474 280802 267905 265683 276956 
3483.122 300198 330041 359686 382369 394175 394208 384823 370497 355043 
3487.462 340353 326194 310577 291213 267109 239260 209789 181380 155890 
3491.802 133152 112173 91691 71244 51824 36283 27700 28197 38404 56961 81583 
3497.105 110284 141836 176441 214794 256732 300961 344100 381871 409928 
3501.445 425384 428070 420707 407839 394308 384027 378688 377859 379948 
3505.785 382468 383961 383264 379981 374741 368706 363831 361510 362571 
3510.124 366385 370265 371193 366020 353087 332892 308289 284117 265650 
3514.464 257196 261340 277884 305006 339358 377096 414837 448866 475899 
3518.803 492850 496863 486149 460509 421735 373713 322845 275829 239194 
3523.143 217247 210717 216949 231270 247946 261970 270026 270656 264059 
3527.483 252057 236973 221623 207999 197855 192518 192352 197722 208529 
3531.822 223679 241282 258124 269993 272513 262401 238464 202827 161094 
3536.162 121486 93414 83108 93680 123740 167889 218275 266844 305868 329013 
3540.984 332859 316611 282426 234652 180054 125993 79926 48113 34527 40524 
3545.805 64748 104451 156354 216419 280669 344067 401438 446810 475070 
3550.145 482235 467408 433145 385685 333854 286836 250300 226463 213601 
3554.485 208363 207568 208396 209888 211811 213767 215955 218905 223281 
3558.824 230641 243305 262434 289389 323143 361244 400443 436992 467574 
3563.164 488770 497593 490926 465716 420608 357331 283554 211844 155857 
3567.503 124635 117244 124204 134346 139384 135738 124800 110946 99943 96629 
3572.325 103721 121585 148167 180319 214662 247813 276425 297247 306863 
3576.665 303017 286007 258787 228022 201402 186021 185523 199181 221889 
3581.004 246686 268369 283852 293733 300629 307128 314158 320955 325000 
3585.344 324470 319430 312964 309748 313528 323276 333688 338496 335114 
3589.684 325034 313793 307559 310444 323044 341547 358227 364329 354048 
3594.023 327156 289986 251958 221524 202197 191954 185490 177800 167558 
3598.363 157448 152476 158542 177966 208396 243106 273508 293136 299568 
3602.702 294860 283554 271220 262534 260577 267374 284250 311704 348710 
3607.042 392285 435798 470725 489931 490727 476596 455998 439281 434206 
3611.382 444753 468900 499186 524165 533421 521743 491125 448966 403295 
3615.721 360946 325498 297513 276989 264158 259318 264026 277950 297413 
3620.061 316711 329775 332362 324304 309880 295291 288030 293898 315517 
3624.400 351263 395037 437921 471289 488902 490030 480742 474639 489002 
3628.740 532293 595263 655819 692921 697534 672146 624694 566066 507014 
3633.080 458154 425384 409431 404821 403163 396828 381606 357829 329112 
3637.419 301326 278912 264423 257096 254212 252488 250001 246985 245924 
3641.759 250035 262003 282327 308952 336407 357166 362339 341481 283819 
3646.098 181314 32041 -153648 -350780 -520654 -624326 -635443 -552787 
3649.956 -400008 -215218 -34524 121254 245924 342940 419049 479316 526388 
3654.295 559828 576848 574659 552895 516104 472052 429364 393976 368010 
3658.635 351992 345791 348909 360847 380213 404158 428037 447142 457225 
3662.975 456296 444820 426246 406015 389134 380081 381507 393446 413146 
3667.314 435865 453643 455998 431918 374211 287168 187678 98584 36614 6891 
3672.136 5135 22498 49306 73099 81451 62892 16269 -42807 -87730 -98396 
3676.958 -71298 -13253 65179 153636 241548 319695 381407 423327 446346 
3681.297 453808 449297 434770 410724 376167 330604 275132 212706 148233 
3685.637 88079 38470 5235 -7190 2982 33599 78866 131363 184496 235149 280835 
3690.941 320458 351561 372619 383397 386116 384690 383828 386813 394242 
3695.281 403461 409199 405086 386647 353684 310079 262302 217148 180187 
3699.620 153802 138290 131628 131661 137528 149659 168950 195402 226032 
3703.960 256732 281200 294296 291975 272911 238895 194175 145283 99115 62992 
3708.781 43142 43904 67234 110383 166298 223347 269794 297678 305835 298076 
3713.603 280868 259815 237636 214629 188971 158144 120260 75684 27270 -18952 
3718.425 -55926 -77592 -79911 -62552 -28825 14778 60076 97557 119365 121022 
3723.247 102595 68957 28827 -6096 -24120 -15274 24486 91293 173590 256334 
3728.069 327023 377361 403892 407574 391622 360813 320027 274569 227723 
3732.408 181314 135671 92453 55469 32770 33201 61633 111874 168718 213667 
3737.230 235017 231005 207236 173358 140709 120127 117973 136401 172795 
3741.570 221491 275431 327819 371691 401040 412018 405252 387907 368407 
3745.909 352357 341746 336938 336739 339690 342906 341580 330538 305934 
3750.249 269065 227690 193545 177137 181678 203059 232364 260611 280769 
3754.588 288892 284383 268336 243901 215026 186385 161989 144223 133152 
3758.928 127054 122977 117840 110250 100838 91592 85759 86355 95999 116249 
3763.750 146013 181513 215723 239625 246421 233624 204219 164044 121486 
3768.089 85560 64682 65875 92652 141637 204087 269065 326658 371226 401272 
3772.911 418253 425815 427871 428700 430657 434405 438186 438750 433145 
3777.251 418950 395734 365589 332959 302751 279244 264125 256765 255372 
3781.590 258356 264987 274569 286670 300165 313329 324702 333622 341215 
3785.930 349306 359487 372155 385287 395833 399747 394540 380213 358757 
3790.270 334484 311538 291942 275630 259881 241282 217778 189700 160464 
3794.609 136533 125231 131396 154763 188374 220496 239989 240454 220728 
3798.949 184927 140080 96662 67863 64914 92851 144654 206275 264258 312466 
3803.771 351163 383032 411620 439214 466479 492219 514113 530004 539127 
3808.110 542842 542842 540288 535212 527184 515938 501640 485519 469929 
3812.450 457656 451254 453178 464223 485021 513516 544899 572535 589423 
3816.789 592111 580896 558170 526553 488604 447175 405982 370729 346554 
3821.129 335512 333721 334318 331765 324072 312002 298176 285344 275663 
3825.469 270690 270855 275265 282460 290682 298739 305338 309582 310212 
3829.808 305968 296485 282725 267838 256135 252024 257826 272712 293434 
3834.148 314953 332959 343271 344664 337767 325664 311969 300132 292042 
3838.487 287665 285543 283554 280371 275862 270623 266711 267109 274801 
3842.827 292572 321320 358393 398851 435367 461835 473577 469995 452548 
3847.167 426047 395634 367114 345029 332163 328979 334617 347615 366484 
3851.506 389665 415401 439778 457888 466678 468602 470692 479349 496930 
3855.846 522407 550904 576218 592243 594035 579569 550307 510829 467972 
3860.185 428369 398686 383198 383065 396066 417059 439447 455998 461271 
3864.525 452216 429331 396464 359122 321651 287698 259914 240719 232961 
3868.865 240255 264523 303647 350633 397359 437125 466910 485121 491257 
3873.204 485253 469332 447772 426578 410293 401637 399747 402300 406877 
3877.544 411852 416562 421238 426644 432680 437656 438253 431055 415235 
3881.883 392815 368938 349207 340055 347151 373481 418054 472947 526056 
3886.223 565137 584513 585409 572768 552496 529207 506848 488372 475932 
3890.563 470791 471687 475468 478055 476131 468900 457888 446014 436926 
3894.902 432946 434903 441536 449497 453543 448302 429795 396795 352987 
3899.242 305802 265551 241315 238067 256334 292672 340718 392915 441437 
3903.581 478652 498787 499849 483761 455998 423825 394640 374012 365323 
3907.921 369999 385984 409132 433410 453145 463759 463461 453842 438982 
3912.260 424356 414406 411952 416827 426909 438518 448535 455002 458120 
3916.600 461205 468469 483495 507479 538364 570976 598912 615967 617825 
3920.940 602695 571872 528278 475866 419314 362704 310908 268336 238365 
3925.279 223314 223679 239161 267838 308454 358061 413477 470260 522705 
3929.619 565004 592310 601036 590883 564141 526155 483827 443957 412283 
3933.958 391721 382933 384591 393810 406745 418883 425284 421337 404125 
3938.298 373050 330903 283090 237901 204485 190695 202363 239592 296816 
3942.638 362637 423858 470559 498887 511194 514213 515606 520449 529937 
3946.977 540288 545297 537468 513616 475800 431818 392915 368606 365091 
3951.317 382236 415434 456429 497461 531695 555549 568222 571009 565833 
3955.656 554719 539359 521644 503033 485320 470426 459082 451055 445085 
3959.996 439413 432349 423261 412781 402002 392152 382734 372420 359089 
3964.336 340751 317440 290848 265252 245592 236111 239558 255604 281498 
3968.675 312997 345825 376267 402267 423095 438651 448700 452780 451155 
3973.015 444753 435765 428402 426710 434704 454140 483827 519885 557340 
3977.354 590253 615005 629472 634449 631596 623533 611952 597751 581128 
3981.694 562151 542013 522539 506318 495570 491556 493215 498157 502801 
3986.034 503896 500214 492153 482533 474672 471886 475601 485618 499948 
3990.373 516170 532160 547155 560990 574227 586570 596888 603392 603989 
3994.713 597353 584645 568454 552198 539790 532923 531662 533918 536075 
3999.052 535079 529207 518558 505455 
##END=
