##TITLE=aa_2 Sep 02 11:45:51 2026 (GMT+02:00)
##JCAMP-DX=5.01  $$ Nicolet v. 970
##DATATYPE=INFRARED SPECTRUM
##ORIGIN=Vojna akademija
##OWNER=Nicolet
##LONGDATE=2026/09/02
##TIME=11:46:16
##SPECTROMETER/DATA SYSTEM=Nicolet iS20
##DATA PROCESSING=
Ratio against background
%Transmittance->Absorbance
Truncated
ElementMultiply or ElementDivide
##COMMENTS=
Number of sample scans: 8
Collection length: 11,90 sec
Sample gain: 8,0
Background collected on: Wed Sep 02 11:45:00 2026 (GMT+02:00);
Number of background scans: 8
Background gain: 8,0
Sample spacing:  1,000
Number of scan points: 12415
Resolution points: 8286
Number of FFT points: 65536
Apodization: N-B strong;
Phase correction: Mertz;
Laser frequency: 15798,00 cm-1
Number of rejected sample scans: 0
Number of rejected background scans: 0
Bench serial number: BER2010005;
##RESOLUTION= 4,000
##XUNITS=1/CM
##YUNITS=ABSORBANCE
##FIRSTX=400.156891
##LASTX=4000.123047
##FIRSTY=0.002523
##MAXX=4000.123047
##MINX=400.156891
##MAXY=0.192942
##MINY=-0.002681
##XFACTOR=1.000000
##YFACTOR=1.000000E-009
##NPOINTS=7468
##DELTAX=0.482117
##ZPD=6100
##XYDATA=(X++(Y..Y))
400.157 2523316 1909365 1647463 1763190 2200330 2836971 3532299 4138314 
404.014 4525887 4593423 4270434 3548300 2490290 1234571 -42177 -1156196 
407.871 -1941351 -2292908 -2169259 -1614334 -734556 323342 1433688 2522516 
411.728 3556919 4526489 5415587 6179114 6758984 7101142 7177030 6989237 
415.585 6559463 5910091 5053200 4013358 2866221 1796560 1138651 1236498 
419.442 2223675 3915051 5943278 7943798 9648055 10902856 11607419 11723448 
423.298 11282029 10396021 9251283 8066041 7044630 6310276 5905154 5795000 
427.155 5890980 6063145 6165133 6074636 5715627 5097719 4315375 3543857 
431.012 2973298 2749066 2914619 3386145 3983262 4491369 4754991 4706857 
434.869 4395799 3953970 3545995 3286277 3190036 3178221 3133798 2966393 
438.726 2650111 2230969 1804945 1474446 1298706 1272486 1320043 1332473 
442.583 1204467 891225 426346 -87034 -517146 -735019 -634583 -158716 691593 
446.922 1835489 3120649 4331338 5248475 5715089 5655803 5104223 4192208 
450.779 3144244 2216249 1648295 1588897 2035348 2845042 3798983 4704914 
454.636 5434510 5956076 6306913 6556234 6758446 6915334 6965466 6819633 
458.493 6409227 5732581 4853657 3868881 2879829 1970571 1219452 691129 
462.350 432183 467806 790070 1364114 2130367 3017405 3943371 4815964 5548734 
466.689 6063952 6316260 6304157 6069597 5682726 5218595 4752546 4345260 
470.546 4047872 3904519 3945443 4176986 4566200 5044015 5512692 5881509 
474.403 6099334 6158311 6092882 5961215 5827540 5737550 5706629 5714216 
478.260 5718581 5677657 5576086 5432564 5298548 5235060 5282248 5443972 
482.117 5679772 5922015 6101854 6183516 6174207 6117715 6062440 6031663 
485.974 6000721 5911804 5691992 5297945 4737237 4076233 3417068 2860617 
489.831 2470529 2244524 2120511 2005189 1825474 1558768 1248760 978256 
493.688 835881 866324 1053381 1325460 1587001 1748220 1753143 1600669 
497.544 1338987 1049296 812012 695941 742074 963080 1345368 1849864 2417849 
501.884 2974700 3451200 3797713 3993394 4044828 3977444 3823719 3609872 
505.740 3357595 3083573 2802587 2535581 2307976 2144352 2063212 2068106 
509.597 2145717 2266707 2394759 2488057 2509585 2434508 2251152 1964613 
513.454 1596944 1187987 792360 475966 307725 334981 567127 958763 1421953 
517.793 1844773 2129801 2231335 2164997 2001394 1831962 1742265 1777163 
521.650 1931330 2158404 2392760 2570076 2648311 2622442 2522450 2404055 
525.507 2324998 2330162 2431943 2613242 2838672 3075664 3307678 3538846 
529.364 3787151 4074728 4412869 4791808 5177852 5521383 5772436 5892861 
533.221 5869720 5716164 5470176 5180132 4893263 4646436 4457858 4330535 
537.078 4259224 4237208 4256916 4309485 4380636 4446309 4478011 4450962 
540.935 4353191 4193579 4003828 3831474 3719606 3698419 3770941 3914984 
544.792 4089211 4247546 4354430 4389104 4350581 4250156 4104095 3925917 
548.649 3724418 3506344 3279433 3054608 2845909 2667313 2530648 2443272 
552.506 2409186 2428044 2494922 2599342 2723391 2845609 2944508 3004893 
556.363 3022710 3005427 2968328 2926394 2890203 2861885 2838472 2818895 
560.220 2811391 2832402 2902711 3034288 3218810 3424015 3603190 3707308 
564.077 3706439 3603190 3434134 3255997 3124019 3074630 3110136 3203855 
567.934 3313153 3404245 3463625 3505676 3560627 3662263 3830003 4062052 
571.790 4337663 4626810 4901205 5139158 5329508 5468163 5554842 5593707 
575.647 5594244 5574777 5558802 5568635 5613778 5683028 5742721 5747052 
579.504 5654058 5441757 5123199 4747287 4385757 4101553 3934042 3883591 
583.361 3917257 3979316 4013459 3980118 3864769 3680006 3456110 3229558 
587.218 3027715 2863519 2732060 2615809 2489190 2330761 2134696 1916454 
591.075 1716051 1586768 1583808 1737973 2044669 2458933 2912351 3326776 
594.932 3634296 3796009 3801992 3671051 3436973 3139305 2811291 2478860 
598.789 2167928 1905737 1720508 1634193 1648993 1739404 1855022 1938952 
602.646 1941648 1844540 1668019 1469426 1320475 1281857 1383027 1609549 
606.503 1908633 2206557 2438173 2561077 2570110 2491690 2374269 2267805 
610.360 2207890 2211153 2271836 2368606 2472595 2558378 2607342 2611975 
614.217 2573876 2502387 2410618 2311641 2217447 2136760 2075963 2039809 
618.074 2032252 2056088 2110356 2188807 2278298 2360277 2416316 2432109 
621.931 2404288 2340955 2262610 2193470 2154209 2156406 2198698 2268139 
625.788 2344719 2410552 2453268 2469363 2464198 2448070 2432909 2428844 
629.644 2443005 2476927 2527515 2586176 2641177 2679915 2691784 2670647 
633.501 2616275 2534347 2433409 2325265 2223176 2139391 2089747 2089547 
637.358 2151644 2281861 2474394 2709088 2952248 3169977 3332352 3426453 
641.215 3459416 3454740 3441548 3441815 3464126 3500900 3536909 3556785 
645.072 3556952 3546597 3544793 3567476 3622000 3700290 3782338 3844411 
648.929 3869015 3851865 3800989 3730701 3653475 3575961 3499196 3423581 
652.786 3355658 3309013 3302903 3353421 3465629 3628181 3816532 4001453 
656.643 4157750 4275921 4363165 4441790 4537137 4671688 4857242 5091752 
660.500 5361308 5642208 5904919 6113178 6232186 6233530 6103165 5847991 
664.357 5494235 5082867 4655947 4259324 3942334 3757605 3759777 3972896 
668.214 4354397 4788190 5159980 5414346 5549606 5588605 5554909 5469572 
672.071 5352049 5222988 5101742 4999066 4913235 4828863 4724073 4579259 
675.928 4389473 4168187 3946146 3758842 3635498 3589492 3615418 3692170 
679.785 3791362 3888171 3964102 4012388 4035798 4042621 4042955 4045831 
683.642 4057704 4080815 4112290 4144369 4165444 4162667 4127175 4056099 
687.498 3957314 3846516 3743735 3668812 3634529 3645823 3700056 3789223 
691.355 3901243 4020281 4129349 4209003 4242829 4222720 4154037 4058473 
695.212 3971725 3937185 3988746 4142930 4390342 4700291 5026953 5325080 
699.069 5565178 5737248 5853902 5940187 6026893 6137676 6285768 6474737 
702.926 6701104 6958159 7239455 7539544 7853470 8175321 8500283 8825387 
706.783 9152663 9490346 9852016 10252119 10700745 11200524 11744281 12315921 
710.640 12895242 13464265 14011687 14537289 15051042 15573783 16132606 
714.015 16756199 17471950 18298632 19242764 20296672 21440686 22644966 
717.390 23874930 25100206 26292512 27427532 28482588 29427516 30223510 
720.765 30827378 31196304 31306434 31159350 30786580 30238216 29574156 
724.139 28848392 28095986 27336978 26576720 25812762 25041688 24262414 
727.514 23477506 22692862 21917372 21163610 20448144 19787292 19195594 
730.889 18679442 18236152 17853762 17515796 17208080 16922460 16659545 
734.264 16426655 16232688 16081646 15970187 15885187 15808757 15719116 
737.639 15596554 15426507 15200180 14916185 14581969 14215312 13842396 
741.013 13494171 13200803 12980582 12834525 12744812 12682546 12613092 
744.388 12509749 12361532 12173357 11961798 11747004 11545792 11366848 
747.763 11212934 11084907 10984781 10917229 10886787 10893038 10927083 
751.138 10971868 11006361 11010031 10970849 10887805 10769792 10631504 
754.513 10488984 10356147 10242824 10155408 10096666 10065908 10056142 
757.888 10054887 10046206 10014027 9949100 9854321 9745771 9648020 9587450 
761.744 9583724 9641719 9752446 9895403 10046341 10181695 10284553 10344712 
765.601 10357199 10321503 10240517 10122950 9981986 9834968 9698062 9579591 
769.458 9476867 9376571 9262994 9125253 8967700 8810644 8686128 8621771 
773.315 8630322 8698703 8792081 8861873 8863057 8773079 8597336 8367344 
777.172 8125252 7911706 7748892 7636787 7556907 7484829 7400865 7298317 
781.029 7185519 7078779 6993884 6937117 6901666 6870123 6822628 6743033 
784.886 6626914 6482876 6329708 6187314 6070839 5984125 5918690 5856857 
788.743 5778916 5671447 5531652 5370499 5206891 5065134 4965281 4918463 
792.600 4925802 4980263 5069190 5178288 5295463 5409649 5512557 5598976 
796.457 5667083 5717910 5756587 5789493 5821058 5851282 5873079 5875665 
800.314 5848495 5788452 5703540 5614181 5546686 5522021 5548666 5616866 
804.171 5702097 5774216 5811421 5808600 5780729 5754976 5759979 5812730 
808.028 5911133 6034318 6151018 6233261 6263615 6242236 6183617 6110288 
811.885 6042112 5991919 5962727 5950197 5946200 5943714 5938575 5931185 
815.742 5924769 5924669 5936895 5965985 6012311 6070302 6128099 6168561 
819.598 6172661 6127796 6031058 5893465 5736241 5586826 5467962 5392640 
823.455 5360972 5363958 5389654 5429041 5480277 5547760 5638550 5755782 
827.312 5895985 6048227 6197061 6326043 6422913 6480791 6497674 6475443 
831.169 6418105 6331994 6226740 6115564 6014327 5937130 5892861 5881677 
835.026 5895716 5921310 5944386 5957890 5961686 5963634 5974820 6004215 
838.883 6054678 6121781 6195616 6264287 6317402 6348368 6355226 6339458 
842.740 6305367 6259480 6210371 6167721 6140264 6132837 6144532 6166208 
846.597 6182811 6178105 6138348 6057366 5938709 5795504 5644625 5505477 
850.454 5395995 5329373 5314950 5355135 5446085 5574408 5719756 5858738 
854.311 5967967 6032873 6051150 6034553 6003678 5979657 5976399 5993599 
858.168 6017183 6024843 5997529 5926046 5817667 5693066 5581221 5508363 
862.025 5491283 5534706 5631568 5768373 5929338 6100913 6272388 6433910 
865.882 6575812 6686770 6756359 6777696 6750100 6680948 6583112 6473526 
869.739 6368037 6279045 6214707 6177534 6166477 6177534 6205934 6245093 
873.596 6286944 6323253 6343761 6339424 6302745 6230303 6123428 5990004 
877.452 5843155 5697867 5571018 5475143 5417634 5399182 5416225 5462962 
881.309 5534739 5629420 5746850 5886681 6045808 6216052 6383974 6534942 
885.166 6654569 6733812 6771201 6773557 6752725 6722572 6697403 6686669 
889.023 6696595 6728159 6777091 6833837 6884093 6912338 6904056 6851610 
892.880 6758244 6639530 6520445 6427790 6384714 6401796 6474636 6585534 
896.737 6710391 6823874 6905874 6946140 6943311 6902440 6832861 6745961 
900.594 6653695 6567234 6497103 6449447 6425536 6420963 6427588 6436432 
904.451 6441981 6444201 6448942 6464110 6495185 6541400 6596165 6648076 
908.308 6686332 6705478 6708103 6702551 6698984 6706050 6726308 6757874 
912.165 6795971 6837539 6883252 6937016 7002706 7080564 7164432 7242622 
916.022 7301081 7328307 7321029 7285109 7234031 7182959 7145535 7128222 
919.879 7129165 7140314 7150655 7149678 7131119 7094170 7044597 6992469 
923.736 6950618 6932269 6947823 7002268 7093867 7214862 7352604 7491301 
927.593 7616115 7714151 7776248 7798311 7780567 7728789 7653850 7572079 
931.450 7502965 7465311 7472794 7528958 7625692 7744069 7861803 7957970 
935.306 8020474 8048895 8053316 8049670 8052202 8069586 8103207 8148784 
939.163 8199901 8252241 8305466 8362547 8427507 8503425 8591421 8690895 
943.020 8800635 8919840 9047637 9182443 9321184 9459021 9591583 9716731 
946.877 9836256 9955541 10079981 10211444 10345051 10469025 10568522 
950.252 10631402 10654696 10645494 10618635 10589436 10566009 10545029 
953.627 10513017 10452733 10354247 10221248 10074284 9942930 9860049 9847305 
957.484 9908725 10030608 10186411 10346306 10484571 10587399 10651674 
960.859 10682338 10687126 10674018 10650350 10622879 10600233 10591846 
964.233 10605970 10646241 10709404 10785246 10858078 10914035 10944922 
967.608 10952907 10948082 10946383 10962388 11002317 11061896 11127464 
970.983 11180159 11202054 11184035 11127159 11043372 10949780 10863650 
974.358 10796490 10750975 10721766 10698740 10672660 10637277 10591303 
977.733 10536033 10472996 10401179 10316310 10213446 10089341 9946015 
981.108 9790367 9631522 9477443 9330967 9188941 9045100 8895759 8743800 
984.964 8602168 8488930 8422237 8412880 8459502 8547759 8656247 8764221 
988.821 8855821 8923695 8966922 8986373 8980080 8942670 8868265 8756242 
992.678 8616870 8472442 8350353 8277704 8269295 8323062 8419062 8527079 
996.535 8616364 8663109 8657903 8604635 8517211 8412102 8304587 8207262 
1000.392 8128054 8073130 8045924 8047139 8072826 8113538 8156684 8187105 
1004.249 8192811 8167690 8112254 8032659 7938196 7838456 7740831 7650714 
1008.106 7571135 7502493 7441311 7380408 7307618 7208831 7072717 6896145 
1011.963 6689158 6474165 6283415 6150177 6097889 6134584 6249026 6415448 
1015.820 6596972 6757975 6871335 6921226 6904797 6830605 6715001 6577158 
1019.677 6439997 6325337 6250606 6227782 6259984 6341172 6457484 6591085 
1023.534 6725635 6848816 6956274 7049143 7131826 7206473 7271160 7318468 
1027.391 7339091 7324466 7271328 7183060 7068608 6939036 6802737 6663755 
1031.249 6519671 6364910 6194910 6011035 5824283 5654931 5526585 5461956 
1035.106 5472928 5555647 5689810 5844936 5986040 6082701 6117345 6085960 
1038.964 5997362 5867974 5716096 5557728 5404215 5264539 5146669 5058932 
1042.821 5009758 5005132 5046462 5128932 5242706 5374256 5509470 5636368 
1046.678 5745541 5830293 5886983 5914256 5913719 5890275 5853063 5812730 
1050.536 5778916 5756655 5744634 5734797 5716332 5680108 5623311 5550882 
1054.393 5474069 5406294 5357383 5331017 5323805 5328736 5337759 5346179 
1058.251 5353290 5361643 5375061 5394988 5421660 5452628 5485108 5516484 
1062.108 5545009 5569139 5587095 5598305 5604011 5609683 5624250 5659865 
1065.965 5726437 5828010 5957990 6100442 6233261 6333204 6384243 6381621 
1069.823 6333641 6256724 6172325 6100241 6052192 6033813 6042818 6072251 
1073.680 6112742 6155521 6193801 6224388 6247580 6266371 6284322 6302980 
1077.538 6318781 6322883 6304526 6253598 6167989 6056559 5940590 5846917 
1081.395 5801347 5819547 5900754 6028304 6173535 6306106 6399610 6438012 
1085.253 6417668 6344434 6229900 6087472 5932327 5779521 5643518 5538498 
1089.110 5474472 5454876 5475444 5526148 5592364 5659865 5717674 5758300 
1092.967 5777708 5774350 5747623 5699076 5634220 5563165 5498665 5454910 
1096.825 5440516 5456688 5495209 5542626 5585551 5614886 5629117 5633313 
1100.682 5634018 5634555 5631803 5616665 5579644 5514470 5423774 5317969 
1104.540 5214034 5128362 5072308 5050250 5059133 5090779 5133995 5177717 
1108.397 5212558 5232679 5237106 5232578 5233283 5257295 5324140 5445247 
1112.255 5618746 5826532 6039055 6222740 6349779 6408723 6406100 6364204 
1116.112 6310174 6267749 6249496 6254807 6273767 6294071 6307149 6309939 
1119.969 6305502 6299114 6295752 6298946 6310712 6333540 6369449 6419551 
1123.827 6480320 6542376 6591018 6610866 6591354 6532318 6445344 6350956 
1127.684 6272725 6227917 6223682 6255883 6312965 6381352 6450758 6517182 
1131.542 6581228 6645855 6713386 6785033 6860563 6940651 7026816 7120307 
1135.399 7219443 7318198 7407033 7475525 7518169 7538970 7552760 7580845 
1139.256 7643834 7754424 7911302 8098515 8289659 8458691 8585304 8661182 
1143.114 8690692 8686771 8665306 8640293 8622414 8618188 8631302 8663717 
1146.971 8715605 8785082 8867521 8956538 9044659 9126065 9198044 9260726 
1150.829 9316918 9369664 9421569 9473480 9524484 9572614 9614550 9645446 
1154.686 9659031 9649071 9610722 9544365 9456887 9362418 9279107 9223529 
1158.544 9206539 9228944 9281646 9348402 9412054 9458038 9477138 9465895 
1162.401 9424447 9355444 9263028 9155945 9047738 8956944 8904688 8906920 
1166.258 8968816 9080523 9219739 9354766 9455295 9502606 9491869 9433116 
1170.116 9344306 9243837 9142545 9040837 8930461 8799689 8638907 8445211 
1173.973 8223842 7987466 7753176 7537487 7356278 7220555 7135194 7098987 
1177.831 7104275 7138933 7187204 7235446 7273316 7297273 7309673 7316850 
1181.688 7324735 7336125 7348662 7356750 7354188 7337575 7308359 7272945 
1185.546 7240264 7217826 7209404 7213615 7224968 7235648 7238781 7230460 
1189.403 7209775 7178748 7140381 7098145 7055575 7015737 6982536 6959337 
1193.260 6949035 6952537 6967553 6988025 7004558 7007588 6988463 6943412 
1197.118 6874466 6790519 6704132 6628528 6573995 6543318 6531679 6527710 
1200.975 6518662 6494008 6450826 6395004 6340164 6302577 6295483 6325438 
1204.833 6389287 6475645 6568613 6653493 6718501 6759052 6775879 6774566 
1208.690 6762787 6749158 6742797 6752691 6787322 6853023 6951459 7078240 
1212.547 7222240 7368107 7497908 7596693 7655739 7673579 7656379 7615138 
1216.405 7563347 7513450 7476098 7459648 7468985 7507179 7574406 7669397 
1220.262 7788696 7927330 8079679 8238463 8395448 8541676 8666725 8761854 
1224.120 8820653 8842328 8832961 8806485 8781903 8777034 8805538 8871377 
1227.977 8968242 9081402 9192427 9284556 9346066 9373151 9368309 9338381 
1231.835 9290717 9231957 9166605 9096933 9024598 8949739 8872526 8792047 
1235.692 8708033 8620858 8532654 8445919 8364067 8289017 8219689 8152531 
1239.549 8082716 8007109 7926723 7848172 7781106 7736750 7721538 7735232 
1243.407 7769570 7811906 7847666 7866155 7863356 7842100 7809173 7772336 
1247.264 7737087 7705584 7677457 7652063 7629267 7611631 7602189 7603268 
1251.122 7614429 7631897 7649163 7658335 7652535 7627243 7581857 7518911 
1254.979 7443974 7365478 7292690 7234772 7199163 7189528 7204283 7236625 
1258.837 7277461 7316075 7345157 7362849 7372892 7382666 7399281 7426177 
1262.694 7461468 7498448 7529092 7548006 7554951 7556098 7561492 7581385 
1266.551 7622354 7684775 7761406 7841054 7910593 7959523 7983315 7984395 
1270.409 7970626 7952470 7940422 7940761 7954225 7976330 8000157 8019192 
1274.266 8030263 8035089 8039409 8050886 8075088 8113538 8161748 8211314 
1278.124 8251532 8274090 8274935 8256125 8224551 8189467 8160465 8144462 
1281.981 8146116 8167622 8209930 8272875 8355723 8455683 8568001 8685621 
1285.839 8799857 8901408 8982617 9038942 9069730 9077917 9069933 9054471 
1289.696 9040600 9037251 9052475 9090775 9153136 9236289 9333269 9434944 
1293.553 9533425 9624171 9706872 9785825 9867845 9958932 10062347 10176132 
1297.411 10294189 10408442 10510437 10595411 10662133 10713785 10755730 
1300.786 10794044 10833686 10876356 10920763 10962082 10994059 11009590 
1304.161 11003880 10975572 10929054 10872381 10816531 10772781 10748359 
1307.536 10744997 10758685 10781510 10803283 10814765 10810111 10785281 
1310.912 10737797 10665766 10567266 10442517 10295071 10134753 9975205 
1314.287 9833036 9722932 9652764 9622816 9624747 9644531 9664689 9670584 
1318.144 9653068 9610180 9546635 9471719 9395801 9327988 9274570 9239572 
1322.002 9224781 9230095 9253347 9290683 9336451 9383951 9427562 9463490 
1325.859 9491903 9516559 9543959 9580540 9631149 9697452 9777456 9866760 
1329.717 9960491 10055735 10151881 10251136 10355876 10468245 10588621 
1333.092 10714804 10843640 10973227 11102990 11235885 11376848 11531467 
1336.467 11704113 11895864 12103542 12320080 12536146 12741195 12927328 
1339.842 13089945 13228505 13345275 13442699 13522609 13585919 13634365 
1343.218 13671258 13702239 13735170 13777442 13833879 13905480 13989341 
1346.593 14080989 14177209 14278586 14389748 14517829 14668566 14842704 
1349.968 15034234 15231613 15420053 15587108 15725816 15836626 15925262 
1353.343 16001746 16076146 16155750 16245482 16349236 16470291 16614547 
1356.719 16789708 17004046 17265724 17581346 17957556 18402738 18931228 
1360.094 19564990 20332956 21263536 22372146 23642512 25017924 26404468 
1363.469 27701430 28831928 29754552 30460472 30955774 31249104 31350202 
1366.844 31276308 31062996 30765844 30462460 30233420 30140858 30225464 
1370.220 30505540 30991856 31705566 32686904 33994516 35685772 37781888 
1373.595 40223072 42845772 45421164 47710488 49547952 50858384 51619896 
1376.970 51827568 51467636 50524116 49010336 46996332 44616972 42031364 
1380.345 39399812 36843836 34434068 32210070 30188132 28371544 26754360 
1383.721 25318020 24031260 22853136 21742324 20665376 19607244 18577310 
1387.096 17603358 16717907 15942896 15280483 14719978 14246777 13846946 
1390.471 13508698 13219589 12963855 12723419 12478649 12214115 11924027 
1393.846 11615484 11308044 11024782 10781748 10581525 10415908 10273730 
1397.222 10148929 10041391 9955135 9892454 9849982 9818496 9788029 9751701 
1401.079 9708260 9659268 9606251 9547549 9478357 9393567 9292172 9182341 
1404.936 9080049 9002406 8959785 8950213 8961949 8978694 8987962 8985188 
1408.794 8974330 8964183 8962795 8972977 8990398 9006905 9016445 9020200 
1412.651 9026763 9047603 9090369 9155031 9232261 9308117 9369934 9412698 
1416.509 9442259 9475614 9533696 9634944 9784402 9968831 10164125 10351396 
1420.366 10525882 10694495 10867353 11052582 11254417 11474546 11713577 
1423.741 11971368 12246831 12536862 12836709 13142877 13456199 13784180 
1427.117 14141846 14549658 15027168 15585357 16219892 16910988 17632860 
1430.492 18364888 19100470 19845766 20610754 21400622 22211944 23036946 
1433.867 23871602 24720178 25602714 26551430 27595530 28730636 29906058 
1437.242 31043706 32082160 33007822 33847520 34644736 35445220 36284964 
1440.618 37185708 38152684 39177616 40243536 41329724 42420308 43504120 
1443.993 44575812 45636788 46694760 47766740 48877196 50055556 51323332 
1447.368 52682532 54110020 55565600 57015044 58452320 59902276 61410488 
1450.743 63021168 64756712 66601060 68500992 70389640 72201616 73905336 
1454.119 75504568 77023928 78490424 79906512 81227288 82355616 83203600 
1457.494 83769088 84131576 84391736 84597536 84750832 84837992 84853784 
1460.869 84805160 84703584 84552680 84335920 84006920 83497376 82729352 
1464.244 81650464 80262840 78611912 76747624 74686664 72403136 69866360 
1467.620 67071976 64062872 60905644 57679272 54439212 51176284 47832176 
1470.995 44319756 40597560 36758976 33069428 29852712 27292906 25360590 
1474.370 23883436 22665318 21576262 20559022 19616222 18773468 18047350 
1477.745 17427076 16880122 16366852 15857624 15339827 14820213 14317589 
1481.120 13854061 13445399 13094999 12797361 12543546 12327136 12143474 
1484.496 11986935 11847169 11706632 11544397 11341169 11085315 10776721 
1487.871 10424767 10044951 9653712 9268444 8908747 8596220 8348022 8171100 
1491.728 8059695 7999616 7972144 7959591 7945991 7920379 7875400 7808566 
1495.586 7720121 7613013 7490526 7356480 7217152 7082113 6963075 6870595 
1499.443 6809064 6775172 6758176 6744884 6724154 6690437 6644779 6593069 
1503.301 6543250 6502887 6478470 6474972 6497136 6547219 6619646 6691547 
1507.158 6726611 6702551 6625736 6519200 6406806 6309805 6244992 6222606 
1511.016 6245429 6305703 6386295 6465724 6527407 6562558 6571641 6559531 
1514.873 6533025 6495455 6446521 6384109 6309065 6227883 6150581 6084818 
1518.730 6031730 5984294 5928162 5844734 5718077 5548666 5360469 5188951 
1522.588 5056082 4962030 4892224 4830303 4764170 4689607 4610301 4536366 
1526.445 4478011 4440886 4423781 4421271 4426928 4435898 4445707 4454611 
1530.303 4459432 4455180 4434258 4388368 4311091 4203984 4080581 3965105 
1534.160 3878877 3828365 3806972 3803128 3807841 3815462 3823585 3830504 
1538.017 3833446 3827128 3804198 3761649 3707943 3662563 3641780 3646090 
1541.875 3662363 3673490 3667475 3639508 3594470 3543991 3502570 3479089 
1545.732 3474246 3481560 3492416 3499931 3500967 3496691 3490779 3487840 
1549.590 3489911 3494988 3497226 3489911 3467499 3427855 3370884 3299798 
1553.447 3220779 3143610 3079869 3039493 3029416 3053240 3114675 3218209 
1557.305 3370150 3571485 3798215 3988244 4078273 4070982 4016602 3956043 
1561.162 3904285 3862061 3827964 3801156 3781870 3771509 3769202 3770205 
1565.019 3766195 3749149 3714359 3662263 3599047 3533769 3476817 3436472 
1568.877 3416300 3411391 3411024 3405247 3391254 3373623 3359364 3354088 
1572.734 3359665 3373990 3390753 3399836 3388182 3343838 3261439 3150285 
1576.592 3032086 2931532 2862051 2825064 2815160 2825165 2847276 2872791 
1580.449 2892904 2897941 2881130 2840839 2781945 2714422 2651211 2605542 
1584.307 2586342 2597742 2637576 2699252 2773508 2850211 2920891 2977435 
1588.164 3013668 3025780 3013134 2980071 2934634 2888235 2852012 2835570 
1592.021 2844141 2877594 2930965 2996152 3064419 3127957 3181292 3221547 
1595.879 3247818 3260671 3261539 3252892 3237069 3217808 3199115 3185097 
1599.736 3179356 3184062 3198949 3221046 3246216 3269418 3286844 3296960 
1603.594 3300433 3299732 3297561 3295091 3291118 3282504 3264377 3232162 
1607.451 3183928 3120982 3048268 2972097 2899675 2836471 2786647 2753001 
1611.308 2736462 2736362 2749666 2771441 2794383 2809790 2808890 2782879 
1615.166 2726326 2640910 2538880 2440340 2363742 2316304 2292820 2282827 
1619.023 2277598 2273235 2269538 2267872 2269604 2274301 2278364 2277032 
1622.881 2265641 2243059 2213218 2182081 2153909 2129868 2108791 2089847 
1626.738 2074332 2067008 2075431 2106294 2160835 2232668 2308876 2374902 
1630.596 2417615 2428311 2404554 2349150 2268771 2171724 2067973 1968042 
1634.453 1882675 1823145 1796826 1801817 1824942 1851561 1871660 1882109 
1638.310 1884039 1880712 1875487 1871061 1869797 1872891 1880412 1892059 
1642.168 1907435 1926604 1950235 1978992 2012778 2049962 2085152 2109657 
1646.025 2111422 2081357 2020568 1941847 1862143 1793399 1739537 1700084 
1649.883 1673806 1660003 1660668 1679427 1721240 1785015 1856220 1906170 
1653.740 1918617 1905837 1890063 1884838 1893291 1913092 1939651 1967342 
1657.598 1992074 2010947 2024196 2033584 2041440 2048797 2053724 2051627 
1661.455 2036580 2004290 1956758 1903474 1858749 1834292 1834824 1857584 
1665.312 1894921 1936788 1973034 1994304 1992440 1963415 1908633 1836854 
1669.170 1761992 1697589 1650290 1618129 1594384 1573400 1553747 1537487 
1673.027 1530304 1537886 1564920 1611311 1669682 1727261 1772738 1801917 
1676.885 1818453 1828335 1836621 1844540 1849299 1845239 1827005 1791902 
1680.742 1742132 1682388 1619193 1557637 1501377 1453402 1417299 1397753 
1684.599 1396290 1411083 1438441 1476075 1522989 1578587 1642907 1715485 
1688.457 1795362 1880911 1970072 2059384 2144252 2219646 2280762 2325065 
1692.314 2352182 2364042 2365108 2361043 2359578 2368872 2396092 2442372 
1696.172 2502221 2565577 2625576 2680682 2732127 2781545 2827232 2862218 
1700.029 2876360 2863819 2828966 2782512 2734028 2689950 2654711 2635810 
1703.887 2643677 2689950 2782512 2917621 3076298 3229625 3352719 3430527 
1707.744 3460518 3448595 3405213 3343103 3274225 3208962 3154190 3112172 
1711.601 3080770 3055042 3027948 2992248 2942540 2877761 2801953 2722958 
1715.459 2650211 2589042 2536747 2481526 2409052 2312740 2200163 2088615 
1719.316 1994603 1927170 1886569 1869198 1868466 1878316 1892592 1907435 
1723.174 1920880 1933360 1945675 1958589 1971370 1982787 1991541 1997899 
1727.031 2003924 2013511 2030787 2058518 2097071 2142954 2190406 2233467 
1730.889 2268405 2295385 2318636 2345586 2385663 2447737 2533114 2631076 
1734.746 2723491 2798118 2852012 2888268 2910550 2921157 2920891 2910316 
1738.603 2890536 2863019 2829667 2790182 2741930 2680982 2604142 2511518 
1742.461 2407353 2299948 2198332 2109490 2035082 1971004 1908866 1840248 
1746.318 1758998 1663029 1556075 1446254 1344537 1261387 1204965 1179083 
1750.176 1181409 1204268 1236033 1264178 1278568 1274447 1252049 1214634 
1754.033 1167488 1116560 1067763 1027309 1000407 989680 993533 1006086 
1757.891 1019969 1028238 1026279 1011599 983869 944717 898496 852447 814469 
1762.230 790501 782303 787547 802053 821506 842985 864465 884153 900322 
1766.570 910051 910649 901020 883423 863270 847799 844745 858854 890760 
1770.909 935220 981212 1012895 1017179 991972 946742 896205 852413 823166 
1775.249 810385 812908 826353 845774 866457 884983 899592 910184 917223 
1779.589 921108 921739 918418 909653 893815 869877 837341 797539 754022 
1783.928 711838 678418 659569 658142 671284 692257 711075 718409 707689 
1788.268 675930 624893 560625 493447 435102 398188 392285 418684 468204 
1792.607 524629 572668 603193 615403 613114 601235 583252 560658 533089 
1796.947 500280 463328 426047 394938 377593 380313 404854 446047 493314 
1801.286 534913 562284 574062 575687 577081 586935 611090 649249 695974 
1805.626 741609 776062 791199 783431 753890 708121 654127 599576 549809 
1809.966 507313 471587 440143 409995 379451 348942 320756 298971 287897 
1814.305 291279 311041 345990 391588 439646 479714 502005 499749 470990 
1818.645 418585 349837 274204 200838 137362 88112 54078 33234 21968 15473 
1823.467 9840 2286 -8449 -21470 -35186 -47842 -57616 -62486 -58974 -41713 
1828.288 -3313 62959 159205 277420 399714 505521 578474 612749 610857 579901 
1833.110 529340 468038 404523 346355 299701 270026 261439 275994 312102 
1837.450 363964 420442 467109 491656 485386 446876 381507 298408 208529 
1841.789 122348 48908 -5897 -37704 -45391 -30548 1358 42745 85659 124668 
1846.611 158807 191822 231237 284979 357099 442399 527416 590916 612682 
1850.951 581493 499517 383795 262865 169314 126988 143394 206938 294097 
1855.290 377096 433609 453709 439314 400476 349406 294694 239757 183999 
1859.630 127054 72105 25513 -4439 -12325 2783 35885 81119 131562 183535 
1864.452 235017 284648 328349 359586 368474 346654 291047 209855 120525 
1868.791 46323 3611 -6726 2716 13982 11994 -9741 -48406 -93427 -129866 
1873.613 -143811 -126354 -75075 5268 103821 205313 294429 356867 383198 
1877.953 371856 328814 267308 205612 162354 149957 171635 219104 277818 
1882.292 329278 359023 359421 331400 282692 222817 159702 96397 31345 -39394 
1887.114 -118901 -206144 -295057 -373889 -427616 -441717 -407721 -325519 
1890.972 -205581 -65865 69355 175513 230541 219104 139052 5533 -148978 
1895.311 -286514 -371869 -388157 -341146 -255686 -165638 -103432 -91837 
1899.169 -134933 -219921 -318731 -400439 -435957 -407887 -314195 -170076 
1903.026 -3114 153106 265783 313063 288527 203888 83870 -35816 -119266 
1907.366 -141558 -93659 14015 155923 296982 403959 453775 437158 358923 
1911.705 232530 76612 -89353 -245056 -369916 -447145 -465945 -427152 -342272 
1916.045 -236214 -140266 -82727 -81833 -134437 -216145 -292508 -337306 
1919.902 -338729 -303335 -248897 -197169 -164644 -154940 -155967 -146129 
1923.760 -105287 -24849 88377 213899 325034 399913 424389 397956 329775 
1928.099 234884 126656 14347 -97800 -208329 -314924 -412885 -495899 -558876 
1932.439 -600900 -627171 -648644 -676533 -717521 -769386 -820054 -852827 
1936.296 -851637 -809901 -734490 -645534 -567116 -520919 -516120 -544183 
1940.154 -582602 -601264 -574230 -491232 -368459 -243632 -168288 -184947 
1944.011 -312540 -540775 -835002 -1140994 -1400799 -1569305 -1619352 
1947.386 -1550948 -1388281 -1174668 -959428 -783740 -675111 -639744 -665087 
1951.244 -725790 -792571 -838739 -846147 -809670 -737169 -647188 -563377 
1955.101 -512281 -514465 -577870 -691552 -827099 -938732 -976355 -903320 
1958.959 -708556 -421359 -107208 139350 226861 97789 -255520 -784005 
1962.816 -1397397 -1978756 -2425649 -2666805 -2681427 -2495002 -2173183 
1966.191 -1797276 -1439241 -1152561 -956585 -835928 -753046 -665020 -541106 
1970.049 -370413 -170408 20874 152774 183402 95867 -91738 -333895 -567711 
1974.388 -739385 -824321 -835432 -819691 -838409 -936484 -1120901 -1353237 
1978.246 -1561645 -1672265 -1630278 -1424743 -1086430 -681661 -286713 27734 
1982.103 205081 215723 63754 -210979 -543786 -850413 -1046965 -1077440 
1985.961 -919522 -605632 -216245 130435 322182 284747 397 -488981 -1094461 
1990.300 -1703059 -2213040 -2547348 -2669901 -2583481 -2313573 -1896652 
1993.675 -1369752 -779308 -181370 359122 772278 1007315 1046473 916327 
1997.533 681538 435334 265683 227325 332130 552331 837740 1136724 1415969 
2001.872 1661266 1872958 2054956 2202062 2297483 2320668 2254383 2099469 
2005.730 1877883 1631200 1403470 1226496 1112640 1051023 1021928 1003164 
2009.587 980780 952720 923698 899160 878310 851119 798568 695078 520284 
2013.927 259848 -80872 -478887 -888937 -1247624 -1487751 -1548901 -1402417 
2017.784 -1062368 -587532 -65501 416960 782137 982540 1004924 867486 609497 
2022.124 285775 -50791 -360282 -616484 -808281 -941278 -1029809 -1095288 
2025.981 -1158244 -1229485 -1305009 -1365722 -1381411 -1322781 -1172851 
2029.357 -934864 -633292 -306547 1855 260014 443095 540852 553127 487509 
2033.696 356768 177071 -31178 -246314 -444133 -602257 -705810 -744976 
2037.554 -715304 -614003 -437612 -184517 138025 505289 876417 1196460 
2041.411 1409321 1480763 1401509 1194101 901518 576716 263727 -11497 -241711 
2045.751 -431422 -587929 -710805 -796044 -836656 -834341 -802228 -761315 
2049.608 -730984 -720233 -723210 -722119 -700120 -648181 -572576 -494873 
2053.465 -442379 -433673 -472069 -539914 -607849 -644905 -632333 -571087 
2057.323 -479913 -386237 -315321 -282640 -290389 -327638 -378391 -427152 
2061.180 -461444 -472532 -454427 -403021 -318698 -208628 -91109 8648 61898 
2065.520 45627 -47511 -206210 -400008 -589187 -732174 -797598 -772528 
2069.377 -663002 -494508 -302772 -131224 -17494 15142 -38500 -164512 -330916 
2073.717 -496461 -624756 -689931 -686524 -628925 -545441 -467038 -416560 
2077.574 -402954 -419506 -450654 -476338 -483653 -468659 -436586 -397426 
2081.432 -363791 -345549 -348662 -376670 -429767 -504801 -593058 -679841 
2085.289 -743950 -760885 -710872 -584058 -386469 -139670 122016 359321 
2089.146 539525 639759 654957 594035 478652 333356 181115 40193 -77692 
2093.486 -166764 -224590 -251017 -248235 -220451 -174680 -123837 -85411 
2097.344 -79514 -126421 -240254 -421260 -654632 -912083 -1153915 -1339562 
2101.201 -1439835 -1440067 -1345541 -1175494 -957247 -715569 -468295 -226180 
2105.058 4539 217347 401770 546624 641020 681173 672578 629439 569218 506483 
2109.880 447672 389532 324437 245658 153934 60540 -14346 -50360 -32238 43639 
2114.702 168220 320259 474639 605648 691925 720666 688109 600240 471886 
2119.042 324801 184628 74259 7786 -14711 -6626 6659 -2551 -53475 -153052 
2123.863 -291779 -447277 -592066 -703892 -767831 -778779 -739551 -655956 
2127.721 -535314 -386601 -223232 -63215 71012 156288 176342 126126 14910 
2132.060 -137583 -305818 -468295 -611257 -731480 -830968 -911124 -969214 
2135.918 -997844 -986901 -930003 -828653 -693206 -541304 -395374 -278402 
2139.775 -211807 -212569 -290587 -445027 -663466 -917770 -1171198 -1385342 
2143.633 -1530214 -1595154 -1593141 -1553061 -1505087 -1471340 -1454102 
2147.008 -1437491 -1399676 -1326481 -1224133 -1119579 -1049742 -1044221 
2150.383 -1112408 -1234970 -1371139 -1472132 -1507398 -1469391 -1380321 
2153.758 -1280100 -1214220 -1216236 -1301706 -1467410 -1693719 -1952170 
2157.134 -2201403 -2392501 -2470261 -2385647 -2123925 -1714049 -1232327 
2160.509 -774116 -433772 -266282 -268932 -386005 -531476 -618238 -594613 
2164.366 -463827 -278700 -119564 -57815 -134933 -344291 -644707 -972289 
2168.224 -1271676 -1505351 -1654111 -1713125 -1680516 -1553986 -1333418 
2171.599 -1029347 -671736 -307044 2750 205479 275795 229215 115056 2054 
2175.938 -48439 -10867 100109 233127 325067 323641 210418 6925 -232869 
2180.278 -444696 -576811 -606922 -546764 -438969 -338365 -289263 -316248 
2184.135 -415236 -559538 -706637 -813076 -846775 -792472 -657312 -465118 
2187.993 -255686 -71596 47384 73232 -4671 -177595 -423246 -712691 -1015364 
2192.333 -1304877 -1562933 -1776686 -1937030 -2037100 -2071264 -2037297 
2195.708 -1941087 -1797474 -1628727 -1462126 -1320568 -1212965 -1135178 
2199.083 -1071458 -1003794 -921076 -827396 -740014 -685499 -684407 -743983 
2202.940 -851736 -981942 -1100245 -1179459 -1207183 -1187588 -1134550 
2206.316 -1063756 -983695 -892872 -784633 -654070 -505298 -353727 -222040 
2210.173 -128673 -81932 -74346 -86537 -93759 -79116 -37472 21902 82445 
2214.513 128545 152045 154332 142831 124270 99844 64483 11663 -61127 -146129 
2219.334 -227372 -285521 -307010 -292044 -255984 -225882 -228630 -283567 
2223.192 -396797 -559902 -756155 -967561 -1178997 -1376754 -1547184 -1672529 
2227.049 -1729924 -1699759 -1572276 -1355186 -1075986 -776828 -502716 
2230.425 -286514 -141459 -58046 -11696 27402 78965 146344 216054 267208 
2234.764 279078 241349 157812 44103 -79150 -194188 -288104 -355647 -396036 
2239.104 -410005 -398320 -361540 -302507 -228929 -153317 -93030 -64507 
2242.961 -80773 -145831 -253335 -386502 -521812 -634814 -702403 -710508 
2246.819 -656849 -551728 -415335 -275124 -159378 -88790 -74743 -114562 
2250.676 -194718 -292607 -384251 -449727 -475047 -456347 -397128 -307408 
2254.533 -200050 -89518 11597 93249 149427 178463 182441 167524 142168 
2258.873 114526 92056 79396 78402 88344 107003 129904 151382 165304 164442 
2263.695 142764 97524 29821 -54601 -146229 -233830 -308567 -364420 -399445 
2268.034 -414507 -410303 -385840 -338497 -264428 -162260 -35783 104484 
2271.892 242973 361676 444355 481970 473776 427606 357398 278879 206374 
2276.231 149659 113764 98750 102363 120690 149659 186253 227988 271784 
2280.571 315053 353584 382369 396165 390726 363864 317672 258588 196363 
2284.911 143626 111311 107301 133749 186849 258157 335877 409796 470957 
2289.250 514710 540122 548980 545330 533951 520449 509237 504725 508673 
2293.590 519885 534283 545330 546890 534781 509768 478221 450624 438418 
2297.929 449861 486613 542809 606278 661660 696538 704437 686715 651937 
2302.269 611919 576915 552895 539160 530103 518890 499816 471654 437888 
2306.609 405551 380346 365788 361012 361145 360714 356502 349141 344200 
2310.948 349572 371657 412880 469497 532193 588760 628609 645101 637137 
2315.288 609132 569019 524729 482832 447838 422133 406247 400576 404987 
2319.627 419182 442498 473113 509602 550804 595860 644869 697368 751633 
2323.967 804244 850521 885880 906598 912176 905004 890362 874624 864399 
2328.307 864465 876816 900920 933792 971615 1008976 1040693 1061951 1069125 
2332.646 1060755 1037937 1005090 968028 934191 909487 896770 896106 904240 
2336.986 915928 925258 927384 917754 893450 852613 796244 729528 661295 
2341.325 605316 575588 582953 631198 714626 818751 923797 1012662 1073941 
2345.665 1106229 1116427 1114799 1110514 1107856 1106993 1105664 1100847 
2349.522 1090583 1074539 1053846 1029567 1002499 972611 941164 911645 893051 
2353.862 896537 933062 1006717 1110215 1224436 1322269 1379138 1381299 
2357.719 1331575 1247098 1154166 1077031 1027342 1004127 995492 987422 
2361.577 970984 946709 923200 911744 918252 940267 967165 985297 982972 
2365.917 955609 907694 849127 791033 742306 707026 684823 672744 666604 
2370.256 662589 656715 645566 625523 594665 554454 508839 465484 432879 
2374.596 417324 421769 444057 478752 519122 560625 601003 641020 682467 
2378.935 725578 767432 802850 824759 828013 811414 778651 737526 697866 
2383.275 668098 652567 650543 657080 665144 669093 666107 658308 651406 
2387.615 652302 666737 696571 739020 786817 830137 860083 870341 859452 
2391.954 830801 791763 751168 716750 693717 682699 681040 683496 684392 
2396.294 679480 667235 648785 627780 608369 594101 586702 586006 590817 
2400.633 598912 608867 620314 633155 647557 662888 677091 687677 691627 
2404.973 687246 675199 658607 642247 631695 631164 642612 665012 695576 
2409.313 730191 764710 796012 821407 838470 844512 836611 812112 770917 
2413.652 715721 653165 592542 543340 513218 504891 515374 536970 560260 
2417.992 576019 578906 568786 550075 529406 513649 507910 513450 528113 
2422.331 547255 565469 578242 582356 578043 567492 555582 547852 550340 
2426.671 566829 598348 642148 692290 740281 777589 798004 798369 779713 
2431.010 747085 707590 668927 637204 617129 610227 615702 630766 651804 
2435.350 674635 696107 714360 729660 743799 759134 777987 800526 824494 
2439.690 845143 857061 855169 836777 802916 757839 707889 659569 618389 
2444.029 587333 567028 555980 551468 550705 550440 548515 543307 535046 
2448.369 525293 517364 515341 522307 539458 565037 594234 620911 639792 
2452.708 648552 648486 644039 641186 645168 657611 676328 695841 709714 
2457.048 711672 698695 670985 631994 586835 541913 503664 476994 465583 
2461.388 470990 491921 524994 564772 605217 640821 668728 687910 699724 
2465.727 705930 708121 706627 700753 689901 674171 655023 634449 614408 
2470.067 594035 570744 540686 500910 451619 397923 348710 315318 305934 
2474.406 324271 366285 422332 478453 521975 544932 545695 529406 505920 
2478.746 487045 482766 498887 535942 588992 648718 703475 743136 760262 
2483.086 753690 728034 693253 660399 638830 632425 638033 646760 647092 
2487.425 629538 589888 530435 459381 387642 325332 278912 250598 239625 
2491.765 243504 259815 286903 323143 365754 410326 451288 483263 502934 
2496.104 509900 506583 497129 485386 473378 461570 449828 438816 431387 
2500.444 432316 445815 474075 514744 560392 600704 624661 625291 600837 
2504.784 555814 500114 446611 406347 388637 397823 434272 493314 567326 
2509.123 646196 718111 773108 803846 808360 790468 759499 727968 706992 
2513.463 704503 722857 758171 802717 848197 888702 921938 949665 975400 
2517.802 1002466 1031892 1061818 1087627 1105332 1111577 1106029 1091247 
2521.660 1071849 1052518 1036309 1024386 1015020 1005023 990477 967829 
2525.517 935618 893416 843184 788377 733909 685321 648751 629804 631961 
2529.857 656417 700786 758736 820543 875620 913139 924993 907893 864299 
2534.197 801223 729494 662191 610725 583915 585973 616199 668828 734407 
2538.536 802518 862573 906266 929741 932796 919879 897467 873529 854007 
2542.876 843151 841657 848164 860315 875753 893450 913205 935718 961187 
2547.215 988452 1015385 1039000 1056736 1067531 1072281 1073045 1072945 
2551.073 1074008 1077296 1081814 1085534 1086564 1083309 1076499 1068228 
2554.930 1061917 1061286 1069490 1087992 1116228 1151707 1189948 1225001 
2558.788 1251418 1263946 1259692 1238791 1204733 1163800 1124001 1094104 
2562.645 1080452 1086364 1111145 1150013 1195828 1240087 1276042 1298906 
2566.502 1307646 1303791 1291927 1276640 1262484 1252747 1249225 1252182 
2570.360 1261686 1277404 1298873 1325393 1355173 1384988 1410817 1427903 
2574.217 1432491 1423282 1401875 1373255 1343873 1320641 1309175 1311767 
2578.075 1327687 1353445 1384490 1415903 1444126 1467199 1484720 1497553 
2581.932 1507428 1516306 1526381 1539315 1556274 1577324 1601334 1626244 
2585.790 1649492 1668817 1682986 1692333 1698155 1702279 1706504 1711494 
2589.647 1717149 1722405 1726563 1729291 1731087 1733449 1737507 1744128 
2593.504 1753842 1766151 1780557 1796793 1815126 1836388 1861444 1891061 
2597.362 1925572 1964680 2007386 2051993 2096339 2137393 2171724 2195168 
2601.219 2204459 2197699 2175320 2140889 2100268 2061481 2032285 2018337 
2605.077 2022631 2043804 2077828 2118147 2158404 2193703 2221577 2242393 
2608.934 2259212 2275100 2293120 2313606 2334259 2350549 2356946 2348650 
2612.792 2324532 2287024 2242226 2198498 2164198 2144385 2140456 2149047 
2616.649 2163765 2177185 2183313 2179150 2165464 2145451 2123941 2105861 
2620.506 2094941 2093742 2103331 2124041 2155141 2194235 2238529 2282561 
2624.364 2320468 2347085 2358345 2353847 2336558 2312806 2289789 2274933 
2628.221 2273901 2288723 2318536 2359944 2408386 2458599 2505753 2545113 
2632.079 2572510 2584176 2577643 2552311 2511019 2459833 2408786 2368739 
2635.936 2350649 2361543 2402888 2469529 2551045 2634809 2707854 2761570 
2639.793 2792516 2802354 2796084 2780244 2760537 2740130 2720957 2703887 
2643.651 2690217 2682482 2683482 2694985 2716890 2746298 2778310 2807289 
2647.508 2829100 2842540 2849011 2851946 2854681 2858950 2863786 2866754 
2651.366 2864853 2856548 2842207 2823797 2804321 2785513 2767973 2750566 
2655.223 2732394 2713422 2696418 2685783 2686516 2702253 2733561 2777376 
2659.081 2828233 2880063 2928363 2970696 3007495 3040427 3070692 3098256 
2662.938 3121616 3138136 3145979 3144511 3134866 3119547 3101226 3081771 
2666.795 3062717 3044932 3029717 3019440 3016971 3024712 3043297 3070692 
2670.653 3102327 3131829 3153489 3164036 3163602 3155191 3143877 3134265 
2674.510 3128925 3127657 3128491 3128491 3126222 3121984 3118379 3119480 
2678.368 3128291 3146513 3173014 3204590 3236535 3264176 3284775 3297061 
2682.225 3302102 3302035 3299231 3295792 3292487 3289348 3285676 3280902 
2686.083 3274893 3268082 3261572 3256331 3252792 3250556 3248219 3243913 
2689.940 3235834 3222982 3205624 3185597 3164970 3146413 3131662 3121416 
2693.797 3115109 3111471 3109135 3106966 3105064 3103595 3103195 3104363 
2697.655 3106699 3109402 3111304 3111104 3107967 3101460 3092216 3080603 
2701.512 3067822 3054742 3042362 3031652 3023644 3019207 3019240 3024211 
2705.370 3034221 3048536 3066321 3086242 3107166 3127924 3148215 3168007 
2709.227 3188034 3209430 3233531 3261739 3294456 3331283 3370350 3408486 
2713.084 3441648 3466330 3479924 3482395 3476316 3467131 3461454 3465462 
2716.942 3483598 3516599 3561496 3612110 3661160 3701293 3727860 3739324 
2720.799 3737586 3727493 3714593 3704300 3701025 3706974 3722781 3747579 
2724.657 3779597 3815863 3853035 3887368 3915419 3934477 3943738 3943905 
2728.514 3937486 3928258 3918896 3910638 3902045 3889809 3869349 3836889 
2732.372 3791262 3734711 3672454 3611008 3556886 3514027 3482896 3461086 
2736.229 3444086 3427254 3407551 3383941 3357795 3330849 3304940 3280034 
2740.086 3254929 3227789 3197146 3163368 3129025 3098823 3077600 3069424 
2743.944 3075931 3095753 3124954 3158362 3190838 3218776 3240407 3255496 
2747.801 3264644 3268416 3266413 3257800 3241843 3218609 3189870 3159263 
2751.659 3131495 3111071 3101326 3103128 3114808 3133130 3153622 3172814 
2755.516 3188935 3201953 3213769 3226854 3243646 3264911 3290283 3317961 
2759.374 3345407 3370350 3391655 3409421 3424783 3439177 3453672 3468100 
2763.231 3481394 3491347 3496291 3495188 3488909 3480124 3472308 3469803 
2767.088 3475782 3492015 3518603 3554213 3596975 3644319 3694008 3743535 
2770.946 3790259 3831273 3864000 3886399 3898434 3902146 3901444 3901678 
2774.803 3907763 3923175 3949356 3985369 4029110 4078173 4130988 4187691 
2778.661 4248985 4315743 4387799 4463449 4539647 4612444 4678721 4736735 
2782.518 4786984 4832314 4876475 4923758 4977715 5039791 5109319 5183619 
2786.375 5258435 5328702 5390594 5441824 5482525 5515443 5545143 5576791 
2790.233 5614449 5660872 5716500 5780259 5850611 5926214 6007071 6093588 
2794.090 6186138 6284457 6386295 6489098 6589403 6685087 6775374 6861338 
2797.948 6945062 7028634 7113301 7199567 7286726 7374577 7463491 7554884 
2801.805 7650781 7752906 7861668 7976127 8094397 8214555 8335423 8456933 
2805.663 8580167 8706275 8835531 8967125 9099233 9230196 9359371 9487535 
2809.520 9617226 9751769 9893844 10044578 10203439 10368296 10536508 
2812.895 10706008 10876118 11047144 11220482 11397460 11579174 11765729 
2816.271 11956893 12152265 12351885 12556847 12769312 12992838 13231614 
2819.646 13489454 13769200 14072090 14396256 14737596 15090046 15448068 
2823.021 15806869 16165379 16525736 16893660 17276722 17682692 18119062 
2826.396 18591246 19103484 19659140 20260984 20911918 21614324 22370436 
2829.771 23181756 24050416 24978968 25971976 27035028 28175208 29399826 
2833.147 30714560 32124650 33634448 35249868 36979760 38836488 40834572 
2836.522 42989184 45311664 47806764 50471560 53296672 56267744 59369056 
2839.897 62587880 65913492 69338104 72856160 76461576 80147504 83906776 
2843.272 87730840 91611776 95540800 99507272 103498152 107495872 111476640 
2846.648 115412232 119266544 122995872 126551600 129875528 132905080 
2849.541 135576624 137825728 139595872 140840048 141522944 141625584 
2852.434 141145648 140100816 138526960 136481248 134035960 131268176 
2855.327 128259552 125081536 121791304 118434912 115044848 111647696 
2858.220 108269384 104936688 101679912 98531928 95522832 92681104 90030416 
2861.595 87588688 85370528 83385672 81639192 80130760 78854440 77797216 
2864.970 76940968 76265008 75747376 75366448 75103128 74937800 74848976 
2868.346 74812728 74798752 74774824 74707600 74564216 74317864 73948784 
2871.721 73444704 72802440 72026992 71131760 70136640 69069480 67962080 
2875.096 66847680 65760808 64731868 63786404 62945628 62224656 61634508 
2878.471 61182272 60871216 60700860 60666716 60761220 60973924 61294588 
2881.847 61715584 62233528 62848964 63566560 64391980 65329172 66378556 
2885.222 67535344 68791624 70135664 71555992 73042056 74583728 76172992 
2888.597 77800824 79456392 81127904 82802152 84465744 86108736 87725320 
2891.972 89315264 90882984 92436224 93983304 95529936 97078208 98626344 
2895.348 100170224 101704704 103226216 104734056 106229920 107717000 
2898.241 109199296 110680256 112161952 113646056 115134248 116627856 
2901.134 118129024 119640320 121164608 122705120 124265448 125849992 
2904.027 127463936 129112768 130802232 132537376 134322528 136161600 
2906.920 138057392 140011984 142026192 144098624 146226144 148403168 
2909.813 150624512 152886592 155189040 157534944 159929504 162376288 
2912.706 164874176 167414208 169980096 172550336 175100032 177605680 
2915.599 180044000 182388608 184610192 186669520 188518096 190105888 
2918.492 191380352 192297440 192825328 192941872 192635024 191898880 
2921.385 190731760 189137584 187128688 184728304 181969312 178892640 
2924.278 175542720 171960096 168183424 164247856 160186720 156036000 
2927.171 151832176 147610224 143402640 139233328 135119360 131071792 
2930.064 127098336 123206368 119404664 115701648 112105456 108621048 
2932.958 105249520 101989096 98836128 95787680 92841960 89999064 87259728 
2936.333 84625272 82096920 79676536 77367280 75174312 73105216 71168568 
2939.708 69372272 67723272 66226244 64883196 63695804 62665464 61794804 
2943.083 61087564 60547288 60176628 59975460 59941112 60066808 60343928 
2946.458 60762176 61308972 61971860 62736400 63585200 64500204 65460020 
2949.834 66441452 67421352 68374384 69274792 70097856 70818184 71413576 
2953.209 71867016 72166408 72307632 72292520 72127912 71822640 71386664 
2956.584 70829112 70158104 69381336 68506704 67540256 66488020 65353856 
2959.959 64140068 62847852 61478352 60034352 58521960 56949608 55329068 
2963.335 53672900 51992916 50299056 48598064 46893928 45188916 43485772 
2966.710 41788880 40106004 38447296 36825296 35251916 33736780 32286476 
2970.085 30903472 29587422 28336634 27149044 26023898 24960402 23957938 
2973.460 23014830 22127666 21291652 20501218 19751402 19037946 18358218 
2976.836 17710164 17092094 16502125 15938049 15397944 14881346 14389337 
2980.211 13924809 13491232 13091481 12726557 12394329 12090595 11809102 
2983.586 11543444 11289272 11043576 10805593 10576229 10356012 10144622 
2986.961 9940489 9741060 9543316 9344678 9144609 8943516 8743800 8548367 
2990.819 8359743 8179642 8009067 7846992 7692060 7542443 7396484 7252797 
2994.676 7110909 6970651 6831548 6693533 6555528 6416894 6276153 6133039 
2998.534 5987384 5839831 5691790 5544371 5399015 5256993 5119276 4987100 
3002.391 4862067 4745579 4638900 4542460 4455481 4375582 4299747 4224895 
3006.249 4148651 4070480 3991321 3913246 3838661 3768701 3703064 3639775 
3010.106 3576128 3509952 3440680 3370350 3302469 3241843 3192273 3155091 
3013.963 3127690 3104396 3077366 3039260 2984375 2912051 2825765 2733594 
3017.821 2645744 2572510 2521883 2497388 2497855 2518650 2551445 2587642 
3021.678 2619575 2640843 2648511 2641577 2621175 2589542 2549945 2505653 
3025.536 2460099 2415916 2375369 2339722 2308709 2281295 2255682 2230003 
3029.393 2202561 2172823 2141022 2108525 2077129 2048930 2025428 2007452 
3033.250 1995103 1987846 1985283 1987081 1993472 2005222 2023064 2047166 
3037.108 2075897 2106394 2133963 2152810 2157971 2145951 2116616 2072434 
3040.965 2019536 1965512 1917352 1881178 1859880 1853192 1858150 1869530 
3044.823 1881377 1887833 1884638 1869530 1842743 1807041 1766916 1727927 
3048.680 1694562 1669881 1654215 1646266 1643206 1642341 1642308 1642940 
3052.538 1644736 1648195 1652319 1654514 1650789 1637585 1612775 1577390 
3056.395 1534993 1491269 1452338 1422584 1404800 1399149 1405199 1421221 
3060.252 1445788 1476807 1511152 1544602 1571970 1587832 1589129 1575528 
3064.110 1550887 1521194 1493497 1473083 1461713 1457125 1454233 1447617 
3067.967 1432990 1409155 1378208 1344737 1313994 1290631 1278102 1277404 
3071.825 1288238 1308145 1333935 1361223 1385720 1403636 1411980 1409986 
3075.682 1398883 1381399 1360757 1340516 1322336 1306749 1292857 1279166 
3079.540 1264378 1247896 1230218 1212707 1197390 1186392 1181708 1184432 
3083.397 1194732 1210847 1229454 1246533 1257665 1259659 1252083 1236531 
3087.254 1216993 1197623 1181276 1168485 1157089 1143967 1126526 1104767 
3091.112 1081814 1062283 1051720 1053514 1067464 1090350 1116360 1140345 
3094.969 1158485 1169647 1175196 1176957 1176791 1174697 1169847 1161142 
3098.827 1148020 1131575 1114002 1098057 1086099 1079289 1077794 1081448 
3102.684 1089985 1103405 1121709 1144299 1169415 1194499 1216296 1232810 
3106.542 1243177 1248992 1252548 1256535 1262085 1268665 1273716 1273815 
3110.399 1267036 1252548 1232544 1210680 1191409 1178518 1174033 1177455 
3114.256 1186858 1198952 1210182 1217558 1219485 1215864 1207358 1196094 
3118.114 1184266 1173767 1165727 1160378 1157255 1155063 1152970 1150345 
3121.971 1147488 1144930 1143335 1142671 1142272 1141010 1137322 1130578 
3125.829 1120712 1108919 1097094 1087660 1082877 1083475 1090052 1101246 
3129.686 1114733 1127854 1138053 1143834 1145229 1144099 1143269 1145628 
3133.543 1152538 1162671 1172471 1177023 1172106 1156192 1131941 1105498 
3137.401 1084371 1075038 1079987 1096595 1117257 1132605 1135097 1120114 
3141.258 1089753 1049694 1008976 975533 955675 952056 964143 989979 1026711 
3145.598 1071351 1120413 1169947 1215066 1249491 1268532 1268598 1249291 
3149.455 1213737 1168219 1121277 1081116 1055274 1048299 1061419 1092244 
3153.313 1135263 1183203 1228357 1264344 1287640 1297311 1294818 1282921 
3157.170 1263580 1237595 1204965 1165328 1120247 1073809 1032423 1002931 
3161.028 990710 997219 1018806 1048366 1077794 1100582 1114434 1121011 
3164.885 1124765 1130379 1139747 1151907 1163335 1170478 1171741 1168584 
3168.742 1165461 1167455 1177987 1197124 1221612 1246234 1265674 1277238 
3172.600 1281060 1279598 1276175 1272686 1268797 1261819 1248029 1224204 
3176.457 1189748 1147289 1102209 1061718 1033287 1022061 1029600 1053580 
3180.315 1087892 1124632 1155129 1173069 1175096 1162338 1138518 1109584 
3184.172 1080751 1055341 1033652 1014190 994828 974039 952753 932530 915530 
3188.512 902481 892686 883057 871636 857194 841657 829341 825423 833656 
3192.851 854937 885747 919913 949565 968128 972412 962615 942326 917289 
3197.191 894114 878974 876650 890030 919082 960988 1009573 1057467 1096197 
3201.531 1119417 1124765 1113769 1091879 1066202 1042719 1024120 1009607 
3205.388 995824 978887 957369 932597 908192 889200 879106 878542 884651 
3209.728 892752 897932 896969 889432 876650 861809 847865 836910 830303 
3214.067 829175 833756 844778 861311 881962 903178 921241 931899 932896 
3218.407 924063 908690 890993 876218 868316 868814 877114 890594 905735 
3222.746 918850 927184 928048 919879 901850 874491 839566 799962 759997 
3227.086 724516 697335 681671 678916 688972 710278 740248 775830 813805 
3231.426 850687 883821 911014 932364 948768 962848 976762 991839 1007581 
3235.765 1021430 1029667 1028770 1017079 995559 967298 937345 910350 888967 
3240.105 873495 861776 850222 835681 816659 793854 769822 747882 731287 
3244.444 722160 720732 726175 736929 751168 767731 785190 802518 817456 
3248.784 827548 830038 822568 804045 775199 739352 701019 665443 637701 
3253.124 621309 617427 625623 643143 666903 693551 720799 746820 770652 
3257.463 791298 808062 820012 826220 826353 820211 808958 793887 776992 
3261.803 759632 743136 727835 713763 700753 688242 676560 665775 656483 
3266.142 649216 644272 641716 641351 642612 645400 649614 655985 665277 
3270.482 677954 694282 713132 732714 750438 763515 770884 772112 769158 
3274.822 764644 761656 762287 766934 774502 783166 790435 794883 796244 
3279.161 794817 791730 787580 782668 776328 768527 759034 748214 736829 
3283.501 725611 714924 704736 695244 687080 681870 681803 689005 703574 
3287.840 723686 744463 759698 763714 753624 730656 699857 669226 647192 
3292.180 639062 646760 666804 693253 718111 735104 739883 731054 709448 
3296.520 677722 639626 598946 560260 527814 505057 494906 497759 511791 
3300.859 533022 556279 576484 589921 595429 593902 587864 580598 574825 
3305.199 571739 571673 574194 578507 584181 591281 600074 611023 624163 
3309.538 639228 655521 672246 688308 702844 714692 722923 726308 724184 
3313.878 716152 702612 684890 665012 645632 629041 617095 610791 609995 
3318.218 613711 620646 629572 639195 649481 659934 670155 679613 686848 
3322.557 690565 689801 684525 675863 665742 656483 650145 646993 645864 
3326.897 644736 640953 633421 622968 612384 606245 608900 623798 650908 
3331.236 687777 728897 767100 796344 812012 812809 801157 782469 763117 
3335.576 749342 745260 751367 764577 779050 788775 788477 776693 755217 
3339.916 729594 706826 692821 690764 700222 717148 735502 750338 758536 
3344.255 759964 757043 752728 748579 744496 737626 724947 703939 675598 
3348.595 643940 616166 599908 600870 620546 655587 698762 740480 772411 
3352.934 788809 788908 775929 755715 735070 719106 709349 704570 701218 
3357.274 694779 682368 663850 642513 623367 612118 613313 628344 654990 
3361.614 688242 721695 749475 767996 777191 779747 780444 783398 791730 
3365.953 805605 822801 838636 848994 850654 842288 825291 803315 780245 
3370.293 759433 743368 731951 724284 718675 713696 709548 707756 710544 
3374.632 720268 738257 763283 792194 820211 842587 854671 854239 841292 
3378.972 817855 786651 751201 714924 680775 651837 630501 618721 617726 
3383.312 626884 643873 664282 683430 697268 703375 702413 696903 691461 
3387.651 689337 693220 703541 718077 733411 745691 751666 748845 736597 
3391.991 715455 688275 658740 631961 613246 606677 614773 636606 667700 
3396.330 700454 726109 736531 727105 697700 653762 604122 558170 524961 
3400.670 510066 514511 535676 567691 604089 637900 664547 681571 689071 
3405.010 689005 684691 679381 675764 674403 674270 672810 667169 654824 
3409.349 635246 610426 583584 558933 539790 527449 520814 516701 512521 
3413.689 506351 498953 493082 493115 503332 525558 558999 600306 643873 
3418.028 683994 716219 738124 749309 751666 748181 742140 736763 734606 
3422.368 736962 744198 754985 766768 775929 777821 768926 747019 712103 
3426.708 667036 616929 567924 525890 495868 480775 481372 496930 525127 
3431.047 562615 605051 648054 687180 718343 739286 749641 750670 745160 
3435.387 736863 728300 721429 715986 710776 704138 695111 683994 671980 
3439.726 661461 654426 652236 654525 660034 666273 671483 674536 675332 
3444.066 674967 675033 675830 677954 680144 680741 678784 673739 666239 
3448.406 657578 649150 641418 633520 623931 610625 592509 570147 545662 
3452.745 523137 506483 498489 499351 507213 518194 527416 532193 531961 
3457.085 528643 526388 529440 540653 560956 588096 617958 645400 665708 
3461.424 675332 672578 657446 631695 597784 559629 520715 485585 457888 
3465.764 439911 432946 435898 445848 459182 472251 482666 489632 493911 
3470.104 497427 501707 508407 517364 527350 536539 542809 544567 541482 
3474.443 534714 526454 519852 518326 523568 535676 552430 569616 581759 
3478.783 583783 573066 550075 518724 485784 458817 443858 442962 453875 
3483.122 471289 487675 496300 493215 477259 450856 418187 385420 357829 
3487.462 339557 332594 336341 348610 365987 385453 404788 423062 440375 
3491.802 457457 474639 491125 504692 512156 510298 497129 473213 442067 
3496.141 409696 382667 366617 364461 375504 395966 420442 443460 460940 
3500.481 471289 475866 478288 482633 492883 510265 533421 558070 578972 
3504.820 591912 594466 587532 573896 558236 544634 535610 531165 528643 
3509.160 523535 511360 489931 460110 425516 391025 361510 339723 326857 
3513.500 322049 323707 330405 341215 355673 373117 392451 410990 425450 
3517.839 432548 430060 417391 395734 367777 337203 307493 282625 266777 
3522.179 263561 276061 304774 347151 397259 446478 486613 510696 516070 
3526.518 504692 483263 460376 445284 444521 459679 488604 525591 563909 
3530.858 597253 621309 634084 636142 629837 619053 608568 602164 602463 
3535.198 608933 618555 625391 622272 605183 572436 527748 477856 431453 
3539.537 396066 377129 375106 387178 407574 429231 446478 455301 454339 
3543.877 444488 428402 409464 390925 375239 363897 357033 353153 350169 
3548.216 345394 335943 320159 297778 269828 239558 211811 191755 183767 
3552.556 189700 207965 234320 263031 288660 307725 319397 324536 326791 
3556.896 330339 338994 355010 378058 405683 433277 456230 471289 477326 
3561.235 475667 469033 460077 449861 437921 422001 399382 368010 327985 
3565.575 282924 240089 208131 194639 201269 223911 254941 286836 314821 
3569.914 336573 351528 360415 364063 363466 359620 353452 346223 338529 
3574.254 331400 325498 321353 319894 322082 329444 343105 364329 393114 
3578.594 428203 466380 502569 531331 547586 548217 532757 503664 466313 
3582.933 425782 386945 352026 320027 286637 245924 193347 129076 61699 6925 
3587.755 -18322 -5367 42943 114493 194672 270656 334915 384491 420508 445583 
3592.577 462532 472483 473975 464223 441437 407441 368308 333522 311969 
3596.916 309880 328582 364329 409663 456528 497228 526719 543672 549378 
3601.256 546657 538330 526985 514213 501640 490395 481472 475435 471819 
3605.595 469166 465849 460376 452913 445848 442863 447705 461106 481406 
3609.935 503763 522473 532923 531629 517663 492418 460409 427341 398453 
3614.275 376897 362538 352855 343603 330438 310046 281266 247548 217413 
3618.614 203789 218839 269595 352357 454803 559563 650444 715090 745393 
3622.954 738920 697833 628410 540122 443924 350732 268634 204021 160332 
3627.293 140047 144654 173325 220994 276890 330339 374410 406446 426279 
3631.633 434206 430491 415965 393711 368640 346455 332229 327321 329842 
3635.973 335081 338165 335545 326492 313329 301027 294727 298275 312931 
3640.312 337601 369800 406678 446213 487642 530866 576052 622736 669525 
3644.652 713630 751400 778220 788941 779514 748579 699923 643210 591713 
3648.991 557771 546525 554421 569881 579768 576218 556478 522705 478619 
3653.331 428601 375770 322513 270888 222585 179789 144919 119895 106340 
3657.671 104550 113532 131363 155559 182971 210816 236939 260213 280470 
3662.010 297910 312533 323641 330538 332793 330936 326592 321320 315882 
3666.350 309449 298971 280470 251029 210849 166099 129805 116183 131727 
3670.689 169480 213535 248443 264490 258754 233558 195833 156155 127982 
3675.029 122447 140444 168486 190529 198485 192518 178165 161790 149161 
3679.369 144123 148598 162354 184164 212308 244001 276226 304509 324039 
3683.708 330704 322779 301856 272911 243504 221756 214595 226032 254378 
3688.048 290981 322016 335313 325796 297910 262898 232398 214363 211048 
3692.387 219701 235017 251261 263495 268999 267241 260180 250698 242476 
3696.727 238067 237834 240056 241614 239558 232331 220662 208197 201170 
3701.067 205380 224408 256135 293898 328946 354281 366219 365191 354612 
3705.406 339259 325365 317838 320988 337170 367015 409497 461537 518625 
3709.746 574028 620281 649813 657811 644172 612649 569848 521710 472284 
3714.085 423659 377196 333887 295689 264755 243769 234420 236575 247714 
3718.425 263661 279907 292373 299369 300928 298806 294396 288395 280736 
3722.765 270424 257262 242376 228618 219435 218375 227060 244332 266877 
3727.104 289356 306995 316744 316479 305404 282857 248543 203656 151680 
3731.444 100573 60639 43175 55668 99413 167922 247813 321684 373514 395601 
3736.266 391389 373946 356403 346554 346786 355076 367413 379915 390030 
3740.605 397326 402599 407574 414140 422598 431553 437689 436826 427540 
3744.945 412184 395601 381275 369800 359520 348179 333688 314821 292771 
3749.284 270491 253018 244266 245095 253416 264191 273740 280238 284515 
3753.624 288295 293335 300165 308322 315782 319728 317308 307194 289654 
3757.964 268899 250731 241481 245791 263926 292373 324669 354612 378588 
3762.303 395270 406446 414439 422764 433311 446578 461072 473942 482533 
3766.643 485851 484391 479449 472284 463361 452183 437755 420044 400874 
3770.982 383397 371326 367877 374244 389565 411421 436064 459547 479515 
3775.322 494873 506616 516469 525326 533089 536838 532591 516303 487343 
3779.662 449596 410492 378025 357663 351064 356735 370596 387642 403594 
3784.001 414870 420840 422697 423891 427473 436196 450392 469862 492385 
3788.341 515175 535975 552198 562549 566630 565137 559663 552430 545231 
3792.680 539093 533985 528411 520914 509701 494177 475833 458253 445947 
3797.020 442564 449463 464986 485618 506848 523435 529042 517762 486580 
3801.360 438684 384359 335644 300629 281797 277055 283720 298772 319529 
3805.699 342906 365754 384956 399150 408933 416893 425749 437689 454173 
3810.039 475402 501110 530070 560658 590883 618323 640787 656284 662191 
3814.378 656715 638929 610094 574991 540122 510497 488106 471720 458386 
3818.718 445384 430491 412250 390660 368076 348875 337302 334849 340519 
3823.058 352092 366318 380512 391257 395502 391058 377494 356436 332527 
3827.397 310809 294926 287532 289389 300994 322779 355673 399780 452681 
3831.737 509801 563412 605648 630766 636639 625324 602562 576716 556179 
3836.076 546890 551037 565634 583882 597851 602098 594865 577910 553658 
3840.416 524065 489765 451752 412117 375604 348444 337468 346223 373813 
3844.756 414771 461205 505223 541681 568322 585508 595064 599078 598548 
3849.095 593438 582489 563710 534781 494110 440840 376665 308023 247913 
3853.435 210783 205081 228585 273342 331400 396795 464356 528577 584413 
3857.774 626818 653132 663020 658474 643674 623201 601799 582621 566895 
3862.114 553956 541681 528146 512919 497361 485386 480643 484557 495901 
3866.454 511028 525359 534018 533056 519985 495437 464422 435997 418684 
3870.793 415965 425583 443261 465384 489831 515971 543738 571739 597652 
3875.133 618058 630335 633155 627116 614607 598448 582621 570810 565336 
3879.472 566198 571042 575754 576981 574261 569815 566796 568322 575853 
3883.812 589290 606477 623632 636075 639825 634217 620712 602197 580830 
3888.152 558170 535411 513516 494442 480112 472516 472317 478254 487973 
3892.491 498887 509170 518558 526885 535013 542809 550240 557141 563909 
3896.831 570910 579071 588826 599642 609596 615801 614905 605814 589854 
3901.170 571208 555151 546525 548184 559430 576981 595561 610725 620115 
3905.510 624628 626287 627813 630998 636606 644869 655587 669093 684989 
3909.850 703541 723122 741609 755649 761690 756844 740547 713564 678153 
3914.189 636971 592608 546989 502237 460940 427042 405915 402698 420906 
3918.529 460442 517364 583186 646827 698397 730391 740514 730922 707689 
3922.868 678485 650211 627747 613346 606245 603923 604254 606046 609729 
3927.208 616067 624959 634914 643110 645068 637038 616399 583849 542875 
3931.548 499650 461338 433609 419779 419314 429762 447241 468436 491324 
3935.887 514876 539458 565833 594168 623367 650776 672180 683098 679945 
3940.227 661428 628842 587067 543638 506583 481737 471355 472450 479382 
3944.566 487277 492717 495835 498821 504825 516104 532790 551833 568554 
3948.906 578507 579436 572403 561288 551070 545795 547885 557075 571606 
3953.246 588560 605781 622073 637071 651041 664912 678286 690034 698496 
3957.585 701284 696737 683761 662655 635213 604221 573464 546359 525724 
3961.925 512587 506550 505455 506848 508507 509303 509170 508507 507412 
3966.264 505886 502801 497461 489367 479449 470360 464953 466413 476065 
3970.604 493215 515042 538165 559430 576716 590186 601135 611687 623168 
3974.944 636075 650045 664381 678518 692622 707225 723122 740215 757839 
3979.283 774768 789406 800991 809390 815066 819116 822071 823764 823166 
3983.623 819249 810717 797207 779514 758570 736265 714095 693286 675100 
3987.962 660399 649515 642878 640057 640422 642247 644238 645898 646794 
3992.302 647855 650610 656251 665178 677124 691096 706096 720965 735369 
3996.642 748977 761159 770685 775365 772909 761491 740945 713033 682368 
##END=
