##TITLE=aa_3 Sep 07 10:05:02 2026 (GMT+02:00)
##JCAMP-DX=5.01  $$ Nicolet v. 970
##DATATYPE=INFRARED SPECTRUM
##ORIGIN=Vojna akademija
##OWNER=Nicolet
##LONGDATE=2026/09/07
##TIME=10:05:31
##SPECTROMETER/DATA SYSTEM=Nicolet iS20
##DATA PROCESSING=
Ratio against background
%Transmittance->Absorbance
Truncated
ElementMultiply or ElementDivide
##COMMENTS=
Number of sample scans: 8
Collection length: 11,90 sec
Sample gain: 8,0
Background collected on: Mon Sep 07 10:04:03 2026 (GMT+02:00);
Number of background scans: 8
Background gain: 8,0
Sample spacing:  1,000
Number of scan points: 12415
Resolution points: 8286
Number of FFT points: 65536
Apodization: N-B strong;
Phase correction: Mertz;
Laser frequency: 15798,00 cm-1
Number of rejected sample scans: 0
Number of rejected background scans: 0
Bench serial number: BER2010005;
##RESOLUTION= 4,000
##XUNITS=1/CM
##YUNITS=ABSORBANCE
##FIRSTX=400.156891
##LASTX=4000.123047
##FIRSTY=0.003919
##MAXX=4000.123047
##MINX=400.156891
##MAXY=0.273833
##MINY=-0.002524
##XFACTOR=1.000000
##YFACTOR=1.000000E-009
##NPOINTS=7468
##DELTAX=0.482117
##ZPD=6100
##XYDATA=(X++(Y..Y))
400.157 3919096 1992074 371392 -742925 -1176981 -857986 151614 1667719 
404.014 3418772 5114113 6470096 7292791 7504381 7127077 6243345 4952880 
407.871 3362169 1594217 -152091 -1602120 -2469898 -2523926 -1704247 -158848 
411.728 1758200 3590561 4885724 5325617 4862301 3718102 2295818 995459 
415.585 141770 -91837 324437 1288570 2586742 3916923 4933510 5412400 5365199 
419.924 4996652 4536065 4151427 3941331 3956411 4229211 4755494 5476384 
423.781 6262573 6950820 7401506 7555356 7456479 7220622 6982469 6829360 
427.638 6782341 6788365 6757470 6599226 6272590 5801280 5267055 4768090 
431.494 4380837 4131490 3994297 3916188 3852500 3795307 3778327 3862496 
435.351 4102289 4516880 5070966 5684438 6258270 6712275 7000080 7109731 
439.208 7058943 6889244 6665504 6460948 6355529 6408050 6627721 6954018 
443.065 7261119 7397731 7228169 6692422 5817062 4710206 3518537 2402555 
446.922 1491469 847102 470227 317739 346521 540819 923665 1537121 2410985 
451.261 3525652 4790703 6048597 7133510 7912753 8332587 8420177 8256969 
455.118 7943898 7571472 7220454 6950584 6803948 6799606 6926208 7140550 
458.975 7384351 7609776 7790720 7926992 8036270 8141625 8256902 8374437 
462.832 8461495 8471699 8364911 8121977 7758404 7319850 6874095 6485634 
466.689 6202170 6034015 5955706 5918858 5878721 5816021 5744433 5706864 
470.546 5764545 5981337 6396920 7008430 7753345 8521368 9173948 9589550 
474.403 9700061 9496272 9029098 8393827 7719177 7128693 6712040 6494143 
478.260 6421569 6380444 6237530 5898503 5330279 4582708 3769436 3048836 
482.117 2565477 2415616 2630209 3174416 3966342 4894771 5848361 6723346 
485.974 7437031 7940659 8208951 8243191 8062193 7701369 7207383 6634315 
489.831 6046850 5507524 5080823 4824976 4777202 4942693 5277418 5697733 
493.688 6086397 6335591 6379166 6204691 5857966 5424545 5005635 4677114 
497.544 4474094 4386895 4381473 4426291 4516278 4675472 4946714 5363052 
501.401 5921041 6567772 7219039 7789101 8220971 8501127 8645600 8676393 
505.258 8600648 8403555 8058211 7548377 6888503 6129611 5345206 4606985 
509.115 3957213 3402475 2929664 2527082 2209088 2022398 2028391 2281795 
512.972 2795084 3526988 4381038 5232545 5957285 6449413 6656353 6580992 
516.829 6280523 5840200 5357584 4918899 4581603 4375214 4296601 4316144 
520.686 4384920 4454042 4490264 4487987 4472487 4490934 4593122 4802428 
524.543 5097619 5406127 5628647 5668090 5479505 5090779 4591414 4090247 
528.400 3675361 3391922 3236101 3174082 3168007 3201452 3288747 3469503 
532.257 3783976 4251997 4851445 5519202 6156865 6663149 6955398 6989473 
536.114 6770259 6345745 5795907 5210445 4684047 4296467 4097238 4103058 
539.971 4291582 4612578 4997993 5386736 5735737 6027833 6267077 6465825 
543.828 6627384 6737648 6765614 6679972 6468818 6155487 5797015 5466620 
547.685 5230667 5118338 5114784 5165747 5205751 5180199 5074152 4917357 
551.542 4777001 4728059 4824306 5078979 5454406 5870358 6221900 6419887 
555.398 6412388 6205329 5858738 5476082 5173157 5039791 5122025 5401631 
559.255 5806854 6227043 6553409 6704401 6644812 6393019 6010229 5580516 
563.112 5179394 4865954 4670248 4594796 4620849 4714728 4832247 4919100 
566.969 4922082 4796096 4517684 4097071 3584012 3060781 2615475 2328596 
570.826 2246090 2371571 2671780 3091281 3570783 4057638 4519358 4939341 
574.683 5311595 5634085 5901627 6105584 6235244 6280456 6233631 6091975 
578.540 5858604 5545915 5179730 4802093 4461306 4203248 4054393 4012723 
582.397 4049243 4121957 4194851 4249989 4294761 4355266 4462277 4632135 
586.254 4857577 5107207 5339168 5514571 5608643 5616161 5544874 5406731 
590.111 5209976 4959952 4665458 4345996 4036032 3773481 3586050 3476684 
593.968 3421644 3378197 3305708 3186765 3038058 2906547 2847810 2904079 
597.825 3080002 3339297 3613747 3833546 3950560 3957213 3885363 3792432 
601.682 3735313 3747177 3835151 3982392 4162701 4349678 4526757 4685386 
605.539 4819884 4923758 4989915 5013277 4995814 4948725 4887634 4823535 
609.396 4756801 4674401 4556757 4386460 4161062 3895091 3618425 3361401 
613.253 3145779 2977302 2848710 2747399 2667280 2614275 2606209 2662479 
617.109 2792616 2988879 3226287 3469703 3683916 3845280 3943036 3977979 
620.966 3956344 3887034 3779898 3646458 3504374 3375192 3278965 3231327 
624.823 3234599 3278331 3341734 3404478 3451334 3477519 3486504 3484433 
628.680 3474513 3455208 3422746 3375092 3317093 3260471 3219444 3204823 
632.537 3220712 3263442 3327644 3411558 3520474 3665036 3852801 4078842 
636.394 4319892 4538844 4696640 4764807 4739850 4644694 4522404 4415982 
640.251 4355534 4346900 4372269 4399179 4395932 4344524 4242561 4101687 
644.108 3939592 3773882 3617155 3478554 3366944 3291986 3263542 3287712 
647.965 3362303 3476083 3612043 3754764 3895860 4035631 4180565 4335186 
651.822 4496558 4652832 4787386 4889309 4958846 5010696 5066642 5148848 
655.679 5267289 5418003 5585114 5750913 5905087 6048765 6191146 6342921 
659.536 6505679 6669912 6817007 6929642 7000349 7035504 7052275 7069080 
663.393 7097538 7135666 7170293 7182825 7156516 7079284 6943614 6744278 
667.250 6481800 6167116 5828984 5507121 5235764 5030908 4895508 4825177 
671.107 4811139 4837071 4878519 4904288 4884349 4803132 4663717 4487753 
674.963 4305536 4145573 4022755 3935714 3872224 3819039 3770673 3735146 
678.820 3728963 3769503 3862930 3997741 4143901 4264678 4329330 4323206 
682.677 4255309 4153201 4057035 4001955 4010516 4084996 4209070 4353627 
686.534 4486950 4584416 4631398 4628518 4589137 4536835 4496658 4491268 
690.391 4536266 4636020 4784136 4963739 5153944 5332224 5481518 5593572 
694.248 5670238 5722073 5764176 5813436 5882550 5978280 6101115 6247009 
698.105 6408555 6578907 6752657 6926511 7100671 7277393 7462851 7664034 
701.962 7889808 8146994 8437946 8757391 9091146 9419469 9719476 9973477 
705.819 10175352 10334736 10476764 10635952 10849177 11142796 11527894 
709.194 11998822 12538738 13125426 13741429 14378857 15040305 15734302 
712.569 16470531 17254794 18088144 18969510 19901296 20892170 21956856 
715.943 23110744 24361336 25700888 27101538 28521826 29908366 31208908 
719.318 32380964 33389450 34207732 34813324 35185440 35310892 35189536 
722.693 34838960 34292236 33595208 32797482 31941768 31064990 30193992 
726.068 29345796 28530814 27752076 27006430 26285154 25577198 24871694 
729.443 24161936 23447920 22736748 22040440 21372080 20744922 20170694 
732.817 19659348 19220114 18859696 18581182 18381826 18252566 18177930 
736.192 18137646 18110528 18075260 18012570 17907210 17745300 17517970 
739.567 17222076 16864760 16464716 16051527 15661506 15325240 15061402 
742.942 14870991 14738933 14641698 14556888 14473292 14391597 14321013 
746.317 14269786 14235786 14202815 14142976 14025273 13830527 13558092 
749.692 13229359 12876846 12536589 12232960 11971812 11742545 11526669 
753.066 11308520 11085620 10871599 10693545 10582408 10559831 10631843 
756.441 10783854 10987194 11204502 11403039 11563044 11678517 11756265 
759.816 11809579 11852856 11894774 11937888 11979986 12017727 12049646 
763.191 12077172 12104223 12134240 12166747 12196496 12215307 12215001 
766.566 12192577 12151890 12102826 12057243 12022530 11996915 11968065 
769.940 11917250 11827386 11690089 11511222 11309982 11114921 10951208 
773.315 10834740 10766225 10732668 10711578 10677550 10611064 10499167 
776.690 10338061 10131090 9888589 9624747 9358051 9110129 8900494 8743530 
780.547 8644382 8597741 8589596 8601189 8615924 8620318 8605818 8566007 
784.404 8493322 8378896 8214826 8000055 7745756 7478963 7238276 7061772 
788.261 6977587 6991897 7086896 7223116 7352436 7432379 7433761 7348392 
792.118 7186934 6973311 6735663 6503863 6306544 6166914 6102963 6121814 
795.975 6215816 6360640 6519604 6653796 6730885 6738692 6688149 6610664 
799.832 6542039 6512036 6532083 6593372 6673210 6748283 6806540 6851273 
803.689 6898939 6966880 7063893 7181308 7295352 7375554 7400899 7367601 
807.546 7294981 7215670 7168339 7182050 7266645 7413235 7597840 7792069 
811.402 7969782 8114280 8217932 8278684 8297596 8277029 8220330 8133489 
815.259 8026584 7913022 7807216 7722785 7668587 7646768 7653850 7682279 
819.116 7721571 7760597 7789135 7797197 7776721 7723595 7637866 7526024 
822.973 7399922 7276921 7175144 7111684 7100839 7150891 7263815 7434064 
826.830 7649061 7886299 8115158 8301581 8410109 8415818 8311646 8113133 
830.687 7854684 7583543 7348021 7181443 7096831 7083999 7117612 7166621 
834.544 7208090 7233930 7250708 7272743 7313110 7377038 7459041 7548849 
838.401 7636888 7722246 7813255 7923044 8060438 8221039 8384706 8518867 
842.258 8586385 8560871 8434737 8224382 7963978 7698569 7471446 7311897 
846.115 7234637 7239051 7314626 7444648 7610282 7793115 7974474 8137574 
849.972 8268788 8357378 8398590 8391564 8339139 8245724 8116914 7960300 
853.829 7786099 7610248 7452772 7334710 7273720 7277022 7339596 7442997 
857.686 7563043 7673005 7750579 7782051 7762149 7694016 7587657 7459850 
861.543 7333160 7233054 7185823 7209067 7305293 7456479 7627985 7774157 
865.400 7852626 7839940 7736716 7568876 7376700 7204755 7085043 7030621 
869.256 7037289 7090196 7171944 7269441 7375117 7485537 7596052 7700390 
873.113 7790113 7859340 7908062 7943629 7977713 8021217 8078868 8146893 
876.970 8214150 8266222 8290943 8280642 8232453 8146825 8026381 7876615 
880.827 7709497 7547736 7422672 7370297 7420751 7585499 7850804 8177110 
884.684 8512481 8802596 9008090 9115102 9132495 9086545 9006364 8916289 
888.541 8828768 8748466 8677306 8618864 8580606 8570130 8590103 8634513 
892.398 8689441 8738121 8765506 8764052 8735416 8686195 8623765 8551882 
896.255 8471597 8383963 8293780 8211416 8149087 8116035 8111005 8120795 
900.112 8121437 8089232 8010721 7889605 7748454 7621781 7545477 7541735 
903.969 7614261 7745992 7906982 8061856 8182411 8253288 8273922 8255449 
907.826 8215367 8173734 8146251 8141828 8161984 8199733 8241942 8273618 
911.683 8284222 8271591 8244879 8222458 8227792 8278312 8379572 8520523 
915.540 8677677 8820179 8920584 8965603 8957925 8914868 8859337 8812199 
919.397 8783357 8769461 8756749 8728351 8671458 8583175 8471631 8354305 
923.254 8251802 8180622 8149559 8157325 8193993 8245251 8298441 8346908 
927.110 8391226 8438116 8496093 8570637 8660100 8755634 8843207 8910776 
930.967 8952580 8973247 8986033 9009375 9058362 9137875 9241501 9353345 
934.824 9454043 9528819 9573935 9598019 9618784 9654390 9718697 9814328 
938.681 9933709 10060041 10176675 10270066 10334668 10373012 10393543 
942.056 10406474 10419642 10437222 10458503 10479208 10494890 10503817 
945.431 10509758 10523234 10559423 10634696 10761164 10940199 11160202 
948.806 11397460 11623414 11810465 11941601 12014866 12043241 12047602 
952.181 12047874 12055948 12071210 12082657 12076457 12044808 11990920 
955.555 11930362 11884354 11873559 11908328 11986185 12091140 12200960 
958.930 12293696 12353214 12373327 12356861 12312376 12251092 12184398 
962.305 12123337 12076899 12053154 12057106 12088994 12143883 12211661 
965.680 12279926 12336987 12376838 12400908 12418876 12443835 12489323 
969.055 12562714 12662998 12778593 12891113 12980822 13030531 13032375 
972.429 12989391 12915211 12828006 12747098 12685105 12644509 12616128 
975.804 12583042 12526835 12432889 12296764 12125552 11937650 11755243 
979.179 11600613 11490468 11431545 11421204 11447466 11492339 11533168 
982.554 11547766 11518232 11433280 11291925 11104621 10891508 10676938 
985.929 10484809 10332632 10227320 10165787 10138178 10132718 10138212 
989.304 10147471 10155612 10158665 10152288 10131462 10092529 10036406 
992.678 9969442 9904488 9855337 9833985 9844797 9883166 9936116 9986665 
996.535 10019215 10023657 9997752 9947507 9884488 9821513 9770915 9741162 
1000.392 9735402 9750481 9776981 9802330 9811210 9791384 9736384 9647343 
1004.249 9532443 9404402 9276094 9155945 9046520 8945376 8848956 8755701 
1008.106 8669497 8598214 8551950 8537216 8554855 8597774 8653508 8708033 
1011.963 8748973 8769123 8767162 8745829 8709622 8662061 8604432 8535087 
1015.820 8451326 8350319 8231879 8100440 7965699 7843213 7752400 7710778 
1019.677 7730375 7811298 7941031 8095173 8244373 8363391 8434534 8453792 
1023.534 8427642 8369067 8290166 8199259 8100203 7995938 7893216 7805125 
1027.391 7748420 7740122 7788224 7887648 8018483 8151416 8254807 8302257 
1031.249 8280440 8190379 8046667 7871217 7691453 7534453 7422133 7370230 
1035.106 7382767 7450513 7550771 7654390 7731690 7761744 7739178 7675636 
1038.964 7593659 7515439 7455468 7412257 7371713 7313851 7224598 7104813 
1042.821 6971997 6854538 6782745 6777999 6845248 6972738 7136171 7307179 
1046.678 7457423 7565875 7620701 7618982 7567629 7482132 7387350 7309673 
1050.536 7273653 7292656 7363759 7467705 7575114 7658740 7701301 7703932 
1054.393 7683426 7664473 7666564 7693915 7733714 7762385 7754458 7695703 
1058.251 7589073 7453884 7318805 7208696 7140954 7119667 7139640 7190707 
1062.108 7263680 7352032 7450176 7552187 7649298 7730914 7788392 7818113 
1065.965 7822667 7809241 7785660 7755605 7717153 7663900 7590388 7496998 
1069.823 7392743 7293533 7218163 7181275 7188181 7234099 7305832 7387047 
1073.680 7463086 7525721 7573461 7611462 7646768 7686462 7734793 7791766 
1077.538 7852052 7906240 7943324 7952977 7929085 7873511 7795780 7712094 
1081.395 7639181 7591129 7572517 7579632 7601785 7628322 7651456 7670847 
1085.253 7691048 7718131 7753885 7792980 7821858 7825940 7792879 7720391 
1089.110 7617768 7504651 7405213 7339428 7318906 7341551 7393181 7449131 
1092.967 7481761 7467806 7392743 7254785 7065948 6849354 6632532 6442485 
1096.825 6300190 6215010 6187079 6208758 6269699 6358185 6463739 6576552 
1100.682 6685524 6779884 6850162 6890826 6902844 6894630 6878741 6866925 
1104.540 6866084 6875105 6887460 6894496 6893283 6887864 6889479 6909577 
1108.397 6953547 7014828 7076927 7116804 7116096 7069046 6986476 6892510 
1112.255 6815223 6778975 6794053 6857332 6953614 7064466 7172112 7264084 
1116.112 7333531 7376229 7389609 7371982 7324803 7255021 7175212 7103870 
1119.969 7058943 7054094 7095080 7179220 7296229 7431941 7571641 7700863 
1123.827 7806609 7879348 7913225 7909412 7877999 7838422 7813929 7826480 
1127.684 7889166 8000966 8147129 8305026 8453589 8579390 8680584 8764863 
1131.542 8841922 8916154 8982584 9028151 9038672 9006466 8936514 8845642 
1135.399 8759014 8701441 8688798 8726457 8809122 8925556 9062658 9209280 
1139.256 9355986 9492987 9610349 9698096 9749871 9766984 9761121 9751938 
1143.114 9760546 9803652 9886522 10002194 10134007 10263620 10378069 
1146.489 10473574 10555892 10636156 10724891 10826824 10939451 11055030 
1149.864 11164588 11261081 11341680 11407121 11460019 11502172 11534257 
1153.240 11556170 11569305 11576655 11584142 11597243 11620658 11654487 
1156.615 11694344 11730903 11753405 11752553 11723108 11665412 11586729 
1159.990 11499246 11415625 11346815 11297366 11263972 11236123 11199878 
1163.365 11144190 11064750 10967858 10869459 10791055 10751111 10759500 
1166.741 10812863 10896231 10985564 11055506 11087217 11070189 11004696 
1170.116 10898202 10762421 10609434 10448965 10289235 10136075 9994294 
1173.491 9867032 9755022 9656727 9568278 9484994 9402844 9319931 9236898 
1177.349 9156419 9081233 9012521 8949435 8889063 8826841 8759217 8684303 
1181.206 8603588 8521908 8446224 8385145 8346266 8334647 8351400 8393252 
1185.063 8453927 8524915 8599768 8674601 8749480 8826773 8909085 8996216 
1188.921 9083297 9161157 9219501 9250708 9252400 9229790 9193881 9158449 
1192.778 9134592 9128570 9140413 9165488 9197266 9229722 9257984 9278024 
1196.636 9284996 9272337 9232160 9158517 9050783 8915376 8766215 8622346 
1200.493 8503053 8421359 8383050 8384402 8415109 8461090 8510014 8553402 
1204.350 8587704 8613490 8633432 8649622 8662466 8669632 8667638 8653238 
1208.208 8625692 8588312 8548874 8518631 8509304 8530153 8584426 8668280 
1212.065 8770408 8876313 8972538 9049328 9104444 9141631 9168670 9193678 
1215.923 9222378 9256868 9296065 9338720 9384019 9433352 9489228 9553578 
1219.780 9626542 9705618 9787384 9868726 9948456 10028268 10110198 10195637 
1223.638 10282484 10365547 10436238 10487218 10514443 10519636 10509486 
1227.013 10494856 10486879 10493566 10519602 10564007 10622574 10687500 
1230.388 10750907 10804099 10839835 10853152 10842077 10807971 10755152 
1233.763 10690046 10618974 10546082 10473404 10400263 10325642 10248387 
1237.139 10169281 10089681 10011721 9935946 9861778 9788062 9714291 9642634 
1240.996 9577322 9524077 9487806 9470060 9467892 9473277 9477036 9470196 
1244.853 9447879 9410226 9362892 9314515 9274740 9251690 9249828 9269358 
1248.711 9304969 9348165 9387438 9411614 9412901 9389166 9345152 9290954 
1252.568 9241163 9208028 9198586 9212326 9240689 9271389 9291089 9291834 
1256.426 9272438 9239098 9202139 9173813 9164507 9180210 9222819 9290108 
1260.283 9376706 9474259 9573326 9663707 9735334 9781352 9797924 9785995 
1264.141 9749736 9696977 9635215 9571259 9510158 9456108 9412325 9382293 
1267.998 9368478 9371594 9390452 9421332 9459867 9502131 9546228 9592802 
1271.855 9643515 9699417 9759427 9819445 9874455 9919844 9953304 9976731 
1275.713 9994159 10010026 10026878 10044070 10058346 10064992 10061058 
1279.088 10046850 10025454 10001855 9981105 9966899 9961543 9966967 9985444 
1282.945 10019283 10070554 10138280 10218467 10303520 10385331 10457586 
1286.321 10519330 10575075 10632319 10699284 10779540 10870614 10964800 
1289.696 11053874 11131102 11195798 11252207 11307296 11367189 11433212 
1293.071 11502785 11571415 11636007 11698089 11763243 11839508 11932780 
1296.446 12042901 12162589 12279108 12380213 12457440 12509715 12543000 
1299.822 12566704 12588055 12609988 12629055 12638948 12633047 12609476 
1303.197 12572536 12532087 12499962 12485367 12492631 12519434 12558212 
1306.572 12598629 12631205 12649285 12649421 12631341 12596651 12546957 
1309.947 12483866 12409227 12325704 12237459 12150459 12071653 12006282 
1313.323 11957166 11922087 11894944 11867328 11831642 11783023 11720997 
1316.698 11648803 11572028 11496115 11423245 11352938 11282777 11210792 
1320.073 11138343 11070937 11017134 10986378 10984781 11013328 11066824 
1323.448 11135657 11206100 11265468 11303998 11315832 11300800 11263904 
1326.824 11214906 11166458 11133856 11132802 11175433 11268223 11410081 
1330.199 11592751 11801749 12021542 12239197 12446767 12643315 12833058 
1333.574 13023020 13218975 13424074 13637134 13854985 14073219 14289372 
1336.949 14503200 14716584 14931583 15147820 15361144 15563308 15744299 
1340.325 15896460 16016219 16105166 16168440 16212841 16246377 16277749 
1343.700 16315451 16368710 16444102 16544668 16668566 16810408 16962356 
1347.075 17117528 17272170 17426488 17583692 17747544 17919744 18097852 
1350.450 18274786 18440524 18585436 18702930 18791874 18856650 18907244 
1353.826 18957048 19020048 19109958 19237396 19408802 19626934 19890716 
1357.201 20197456 20544048 20930102 21360560 21848304 22414742 23091804 
1360.576 23918480 24930046 26146906 27554538 29094242 30666696 32162648 
1363.951 33494804 34609896 35488980 36128084 36526664 36688592 36628636 
1367.327 36388756 36039728 35685556 35437276 35385220 35591136 36081424 
1370.702 36863312 37944936 39348228 41108904 43257888 45790296 48620484 
1374.077 51565864 54389148 56855180 58807012 60178152 60950744 61118648 
1377.452 60663748 59566488 57840048 55558560 52863360 49920016 46892672 
1380.828 43906340 41037808 38340696 35852924 33603804 31610586 29865346 
1384.203 28332708 26953684 25663240 24405078 23150162 21910158 20729388 
1387.578 19663716 18751258 17998860 17387654 16889010 16474111 16120709 
1390.953 15810063 15524365 15244826 14953531 14636420 14289920 13923202 
1394.328 13557818 13217404 12917941 12659860 12434151 12230166 12043889 
1397.704 11879995 11747107 11650130 11583836 11533611 11482949 11420796 
1401.079 11346577 11266489 11190120 11123692 11069135 11023455 10982403 
1404.454 10943052 10906764 10876832 10853968 10834434 10810688 10775634 
1407.829 10728117 10675784 10633473 10617617 10638839 10695718 10774921 
1411.205 10855938 10921714 10967450 11000652 11037526 11092724 11174379 
1414.580 11280669 11403889 11535652 11673342 11820577 11985334 12170325 
1417.955 12366304 12549071 12691587 12783200 12839712 12891113 12965322 
1421.330 13074954 13218907 13388364 13575868 13780111 14010284 14279648 
1424.706 14597422 14960595 15354965 15763471 16177211 16602911 17064352 
1428.081 17597700 18239540 19012986 19914790 20916750 21977628 23060356 
1431.456 24138852 25199108 26235312 27242876 28220290 29174286 30122746 
1434.831 31102860 32166500 33363294 34698892 36112744 37497912 38762868 
1438.207 39876072 40864348 41783224 42697032 43660756 44711716 45864528 
1441.582 47113020 48434708 49800156 51184300 52568868 53942968 55302760 
1444.957 56649012 57989032 59338364 60719188 62154072 63656516 65226472 
1448.332 66848412 68508680 70211224 71979008 73849488 75854848 78004480 
1451.708 80266872 82574728 84850440 87023064 89062192 90978008 92802040 
1455.083 94565984 96267896 97845608 99173280 100138680 100741920 101090712 
1458.458 101321272 101503192 101645784 101736736 101770496 101754288 
1461.351 101700472 101612328 101469632 101217024 100770840 100030704 
1464.244 98918800 97417136 95560616 93398904 90954848 88207288 85132472 
1467.620 81735928 78077680 74243944 70334088 66417516 62483916 58461832 
1470.995 54240944 49761920 45124172 40637144 36691332 33520788 31105530 
1474.370 29249062 27717606 26351690 25077774 23896354 22839270 21931868 
1477.745 21167680 20512924 19921692 19354616 18787930 18215040 17642662 
1481.120 17084340 16553376 16059469 15608128 15203474 14847676 14541160 
1484.496 14278346 14046901 13827962 13603218 13360309 13098892 12828996 
1487.871 12563430 12307808 12054517 11784895 11485399 11163330 10845678 
1491.246 10564754 10339214 10169857 10042544 9936659 9831781 9713716 9576814 
1495.104 9425666 9271625 9128197 9002441 8891431 8786265 8680382 8574794 
1498.961 8475246 8386766 8309113 8236235 8160060 8075020 7981864 7887108 
1502.818 7801987 7737930 7702886 7699784 7724742 7765792 7800334 7800402 
1506.676 7745182 7640226 7514427 7393552 7288950 7203710 7142200 7111482 
1510.533 7118488 7166891 7252629 7364062 7484660 7600402 7702616 7787516 
1514.391 7853942 7897804 7909378 7876008 7790147 7660595 7513921 7384317 
1518.248 7296700 7259165 7263579 7288175 7298823 7254920 7129367 6927252 
1522.106 6687880 6455130 6253429 6083272 5933704 5793523 5656878 5525007 
1525.963 5404583 5302405 5221713 5160449 5114281 5079113 5053065 5035065 
1529.820 5023400 5013780 5000272 4975805 4935353 4879457 4818007 4768023 
1533.678 4746181 4756700 4790736 4834022 4877112 4918563 4963404 5022059 
1537.535 5106805 5228956 5391164 5575583 5736207 5814678 5777103 5640060 
1541.393 5448702 5246630 5058362 4893330 4755059 4646234 4568209 4520061 
1545.250 4496056 4487251 4485175 4485075 4487285 4495721 4516043 4552438 
1549.108 4604173 4665124 4725044 4775795 4816198 4850574 4884618 4921144 
1552.965 4957405 4985759 4998127 4993434 4981335 4982307 5019512 5112604 
1556.822 5270341 5479102 5679671 5744131 5543096 5104022 4629791 4279268 
1560.680 4080715 3993360 3970087 3975972 3988846 3996236 3992692 3978815 
1564.537 3960290 3946079 3944742 3963098 4005232 4071852 4159523 4258354 
1568.395 4350447 4409689 4414107 4359985 4268225 4170161 4091686 4044761 
1572.252 4028508 4035296 4054928 4079812 4105433 4133363 4168756 4217099 
1576.109 4276892 4337395 4385221 4413505 4423580 4421271 4412099 4397941 
1579.967 4377021 4345126 4296969 4230583 4148216 4056668 3964034 3877038 
1583.824 3799551 3732639 3675829 3629384 3595271 3576896 3576596 3594102 
1587.682 3624506 3658955 3687759 3702763 3701326 3686455 3665470 3645957 
1591.539 3633861 3632224 3641245 3659990 3688694 3728128 3779296 3841369 
1595.397 3910805 3980620 4043290 4093425 4128814 4151059 4163169 4168254 
1599.254 4167150 4159556 4144469 4121990 4094596 4067069 4044795 4032454 
1603.111 4032353 4044025 4064761 4091318 4120418 4148952 4173507 4190167 
1606.969 4194717 4184279 4159322 4123930 4085097 4050145 4023324 4004229 
1610.826 3988746 3970923 3945945 3912109 3871321 3827697 3785446 3747545 
1614.684 3714860 3685654 3656248 3621666 3578567 3525885 3465495 3400070 
1618.541 3332752 3266847 3206025 3154724 3117311 3096287 3091648 3098122 
1622.399 3106198 3104730 3087944 3058513 3025679 2998020 2979070 2966092 
1626.256 2951447 2926128 2885033 2830668 2774608 2731894 2715323 2729260 
1630.113 2769173 2824431 2882598 2934034 2972531 2996486 3007429 3008430 
1633.971 3001690 2986643 2959053 2913885 2849811 2772441 2691017 2613308 
1637.828 2543913 2485858 2442272 2416816 2413251 2433275 2475028 2532814 
1641.686 2597842 2661946 2718557 2764705 2800019 2825498 2841240 2845208 
1645.543 2832868 2799819 2747365 2687150 2635876 2605575 2599008 2611775 
1649.401 2638677 2676948 2729060 2802153 2909482 3064252 3263075 3457513 
1653.258 3559224 3518303 3374858 3198848 3034622 2897140 2787347 2700519 
1657.115 2630276 2571243 2520117 2476594 2443038 2423346 2420681 2435708 
1660.973 2465397 2501687 2533081 2550312 2549512 2535914 2519850 2512118 
1664.830 2519750 2544879 2586109 2639877 2701419 2763638 2818228 2855181 
1668.688 2865854 2846242 2800953 2742530 2684783 2637943 2605508 2585742 
1672.545 2573776 2563777 2549512 2526749 2494522 2457300 2424046 2403122 
1676.402 2397524 2403055 2412051 2414783 2402389 2369105 2313839 2242859 
1680.260 2168760 2107959 2074299 2077461 2121976 2205825 2315604 2421880 
1684.117 2489724 2505686 2490490 2476961 2486524 2525182 2588909 2668113 
1687.975 2750967 2824664 2879095 2910450 2921457 2920423 2915920 2915253 
1691.832 2921591 2935735 2957018 2985175 3021142 3067355 3127090 3202353 
1695.690 3291485 3388817 3489142 3591396 3698586 3814927 3941699 4073022 
1699.547 4189431 4264277 4279970 4246007 4187658 4127476 4076400 4038273 
1703.404 4016033 4014763 4040815 4099546 4187925 4291448 4386761 4452837 
1707.262 4476371 4455247 4395799 4310823 4214958 4121656 4041450 3978815 
1711.119 3932437 3896328 3863231 3826226 3780165 3722814 3654945 3579803 
1714.977 3501835 3425017 3351851 3282838 3217174 3154657 3097388 3047668 
1718.834 3007562 2977035 2954483 2937436 2923659 2910917 2897541 2881764 
1722.692 2862919 2840839 2817361 2794917 2777476 2769507 2774475 2795317 
1726.549 2832735 2885199 2947778 3013935 3076198 3128024 3166172 3192373 
1730.406 3212668 3235834 3269418 3318596 3384041 3460819 3536542 3595505 
1734.264 3626778 3633995 3630854 3631055 3641914 3665370 3701293 3748815 
1738.121 3805033 3864602 3918863 3957213 3969953 3952766 3907127 3838260 
1741.979 3753160 3659556 3563200 3467131 3370784 3270886 3164036 3048469 
1745.836 2925360 2799652 2677248 2563677 2461299 2369705 2286691 2212119 
1749.693 2150579 2110323 2099768 2120378 2164165 2215283 2257514 2278930 
1753.551 2274334 2244724 2194668 2131832 2063812 1999929 1947672 1910430 
1757.408 1887334 1873191 1860612 1842144 1812131 1766584 1704940 1631266 
1761.266 1555276 1489540 1444226 1422285 1418895 1424778 1430264 1428635 
1765.123 1417532 1398783 1377908 1363915 1366408 1392833 1445489 1520130 
1768.981 1608185 1698188 1778893 1839516 1869564 1861877 1817388 1748486 
1772.838 1674438 1612708 1570972 1547329 1535924 1530437 1527012 1524286 
1776.695 1522158 1520728 1517802 1509689 1491402 1459884 1416601 1369200 
1780.553 1330312 1310637 1315556 1341014 1376246 1406794 1420124 1408589 
1784.410 1372524 1320209 1264810 1219419 1191941 1184764 1196161 1222775 
1788.268 1261520 1309740 1365610 1425543 1485085 1537221 1575129 1594716 
1792.125 1597144 1587766 1571371 1548260 1513380 1460250 1384091 1286643 
1795.983 1176724 1070288 984301 932398 920112 942891 986924 1034051 1067929 
1800.322 1078260 1064309 1033519 996688 963114 938142 923897 920676 928977 
1804.662 949565 982109 1023688 1066966 1101512 1114666 1096263 1042454 
1808.519 958033 855966 754753 674569 629140 623864 652567 701417 753359 
1812.859 794983 820079 829009 827548 824262 828511 847467 884850 939968 
1817.198 1007946 1080252 1147189 1199583 1230118 1234371 1211544 1164299 
1821.056 1098157 1020434 939935 864830 803016 760561 740082 739286 750172 
1825.395 761823 763150 748214 718575 683894 659802 667268 727105 851252 
1829.735 1033519 1245536 1449612 1612276 1717016 1763789 1761760 1724134 
1833.592 1663362 1590360 1512382 1434353 1359860 1293190 1240685 1210381 
1837.450 1209119 1239987 1298607 1374086 1450011 1510986 1544702 1544868 
1841.307 1511119 1449412 1370563 1287906 1215830 1165893 1143335 1144731 
1845.165 1161209 1183004 1202706 1216528 1224204 1227659 1228955 1230982 
1849.022 1235601 1242845 1250886 1255771 1252780 1236997 1204367 1153235 
1852.880 1085268 1005655 922768 847400 789838 759731 763449 802053 869047 
1857.219 949997 1025980 1076134 1084637 1046107 966866 863934 761789 685819 
1861.559 653397 670487 730656 819050 916493 1005920 1076267 1124499 1154797 
1865.898 1176126 1198320 1226962 1261287 1291428 1303126 1281824 1221579 
1869.756 1128120 1016083 901783 798867 716086 656019 616233 591082 574128 
1874.095 559994 545928 532094 520549 513218 511459 515772 527615 549710 
1878.435 586902 644338 723919 821739 927583 1025914 1100814 1142007 1146093 
1882.775 1118619 1069225 1009939 948834 888004 826021 761889 699061 649150 
1887.114 628178 653563 734473 865162 1020101 1160710 1249856 1264212 1203869 
1891.454 1090583 958564 841591 766337 746687 782070 857294 947307 1026345 
1895.793 1073742 1081149 1053348 1004758 953251 915164 900721 910516 935917 
1900.133 961785 973806 962947 931036 888834 854339 843483 862340 903709 
1904.473 948137 971017 949964 876052 756445 615569 485386 399183 380280 
1908.812 436097 557174 720965 898729 1061784 1188851 1267668 1293655 1268532 
1913.152 1199417 1098655 981278 865229 766237 694746 654857 644471 656848 
1917.491 683363 717148 755085 796510 842587 891922 940367 981610 1008311 
1921.831 1015153 1001536 971880 931667 885049 830569 762022 672279 557805 
1926.171 422598 280404 151515 56198 11696 25016 93315 204717 344067 497262 
1930.992 653961 808427 955841 1088158 1192606 1252382 1251883 1182937 
1934.850 1049030 866191 657711 452150 273441 137925 52553 14645 17130 54276 
1939.672 124668 230873 376366 559298 765673 969390 1137588 1237960 1252481 
1944.011 1181209 1042819 869445 701981 580432 533951 577346 704570 892121 
1948.351 1102674 1296247 1443428 1529041 1556839 1544336 1514145 1482924 
1952.208 1455795 1425244 1375515 1292159 1170910 1022260 871437 750537 
1956.066 687777 700786 789141 936913 1117324 1302794 1468362 1596313 1679361 
1960.405 1720309 1732351 1734780 1753176 1809636 1917053 2074166 2263909 
1964.263 2453335 2605542 2691351 2696485 2627509 2508786 2374003 2252984 
1968.120 2161068 2097704 2054557 2023630 2007386 2017339 2071036 2180682 
1971.977 2345286 2548045 2758802 2949279 3094585 3182693 3209663 3176418 
1975.835 3085074 2938437 2740530 2502254 2241627 1981722 1740535 1524419 
1979.692 1322834 1113005 872765 595163 296750 22067 -173256 -236678 -141094 
1984.032 103622 453775 848928 1233009 1567148 1840181 2066242 2279230 
1987.889 2514651 2798952 3140506 3528825 3933173 4307979 4603201 4769027 
1991.747 4773349 4609497 4300516 3893152 3444654 3013801 2644510 2360144 
1995.604 2163699 2045402 1990609 1989278 2039576 2142987 2295552 2480826 
1999.462 2664446 2803421 2858850 2808823 2659912 2446237 2219179 2022964 
2003.319 1880645 1783451 1701614 1600303 1464605 1314393 1205796 1210116 
2007.176 1381897 1736543 2234266 2792149 3302002 3674392 3855442 3846349 
2011.034 3692571 3468534 3249855 3092349 3028282 3062517 3177954 3342669 
2014.891 3519439 3668010 3745506 3717835 3563500 3286678 2919389 2519284 
2018.749 2150512 1864938 1693298 1634525 1662564 1732983 1805244 1851262 
2022.606 1867168 1869697 1888965 1952631 2076196 2257214 2476127 2708321 
2026.464 2926528 3110503 3246516 3323904 3334856 3276161 3152754 2980371 
2030.321 2793516 2634710 2548512 2571576 2712889 2948912 3218910 3444354 
2034.178 3544525 3459717 3172146 2710821 2152311 1596213 1152405 905203 
2038.036 894412 1109683 1493763 1956758 2391394 2710188 2861751 2847977 
2041.893 2714923 2535914 2384964 2308110 2315238 2378367 2447837 2471395 
2045.751 2418548 2291854 2125373 1969805 1874822 1868931 1948437 2080125 
2049.608 2214184 2306810 2325764 2261610 2124907 1937887 1726363 1513613 
2053.465 1316752 1144731 1001669 888104 802319 743136 709681 703541 729992 
2057.805 796709 911379 1078492 1293123 1538983 1788608 2010914 2177652 
2061.662 2271036 2289723 2248121 2171591 2086284 2011546 1951167 1893590 
2065.520 1815126 1692566 1510487 1270592 992204 709448 465119 298242 241117 
2069.859 310145 503033 796908 1152770 1521892 1848866 2087849 2205125 
2073.717 2187042 2044236 1808172 1526148 1245370 1006817 833125 727636 
2077.574 676759 659204 654592 650377 644902 645831 662523 700089 755085 
2081.914 815564 865926 893549 894711 875388 848662 827581 817689 813473 
2086.253 800161 758304 674735 549643 401073 261804 170110 161127 253018 
2090.593 442266 701682 991042 1263215 1474646 1596545 1616632 1542408 
2094.450 1396523 1212209 1024120 858688 731884 645732 591049 552198 515838 
2098.790 473412 425715 380247 348013 337137 349638 379384 415069 444389 
2103.130 458021 452647 431818 402964 374642 356038 356337 384690 452084 
2107.469 569184 742671 970253 1236531 1513480 1761394 1940483 2018936 
2111.327 1977927 1818553 1558402 1228922 863934 497859 158973 -132780 
2115.184 -362136 -518999 -598584 -602091 -538260 -423445 -280422 -131124 
2119.042 5334 118834 209225 285245 360018 444621 544932 658972 777755 888004 
2123.863 978489 1042553 1080020 1096296 1099950 1097891 1092742 1081913 
2127.721 1058961 1017810 956870 880766 802551 740680 712336 730822 798136 
2132.060 904772 1030663 1148451 1233275 1265574 1236897 1149681 1017079 
2135.918 857427 690565 534217 401140 298242 228519 191225 184463 205910 
2140.257 253383 325332 418651 530634 654658 783663 910549 1031527 1148784 
2144.597 1270027 1406927 1567747 1752810 1951300 2143853 2307643 2427145 
2148.454 2502654 2548779 2591409 2653345 2743531 2852079 2947744 2990547 
2152.312 2948078 2806155 2576509 2291954 1998897 1736277 1528176 1375216 
2156.169 1266106 1185828 1132871 1125396 1197091 1378374 1679926 2077395 
2160.027 2516217 2928896 3247217 3420475 3421443 3246049 2911751 2451402 
2163.884 1908999 1330445 765673 261837 -142817 -422717 -570359 -599941 
2167.741 -539021 -421724 -277243 -123108 36250 208297 403561 626818 870574 
2172.081 1113570 1327188 1478768 1548194 1531634 1446221 1321871 1190213 
2175.938 1074440 981245 903742 827847 746488 663817 598912 574227 606179 
2180.278 690498 799796 886876 906266 832063 673109 470658 288096 186651 
2184.618 198219 316081 492551 660067 747749 711805 544833 278713 -30217 
2188.957 -315652 -516782 -597360 -544911 -371604 -106280 210087 531961 
2192.815 818386 1035977 1168219 1216429 1198320 1138983 1062017 981478 
2196.672 896836 797140 669392 508739 325962 148830 11464 -51719 -21702 
2201.012 100573 296087 536174 790136 1031527 1243077 1409155 1515940 1550555 
2205.351 1503771 1376778 1185429 963080 750969 592011 517032 534084 628211 
2209.691 765175 906631 1016747 1074174 1073377 1023888 942592 848064 757043 
2214.031 680011 622703 585674 566066 557340 550274 534947 501673 442631 
2218.370 353186 232663 84798 -81005 -249262 -401465 -514995 -568340 -546467 
2222.710 -446715 -281183 -75307 134743 313196 434007 483263 464389 392517 
2227.049 290749 182706 88576 22796 -7289 -994 35090 89172 143295 179026 
2231.871 183601 153636 99479 43871 15374 37111 120160 257892 428999 603027 
2236.693 752562 860547 922403 944352 937378 912873 877579 835715 791531 
2241.032 750803 722923 716849 738024 784261 845940 910881 967895 1012629 
2245.372 1048000 1081681 1119682 1162006 1199051 1216063 1197589 1136392 
2249.229 1038103 921606 814137 741244 720268 751799 820211 895674 946145 
2253.569 943920 873894 739717 561885 373581 209325 98949 57259 82047 154299 
2258.391 246819 333025 394142 426312 438319 447307 467739 507578 562516 
2262.730 619717 662622 679115 667235 635810 601733 583119 594400 640621 
2267.070 717945 815000 917987 1012828 1088690 1140246 1167089 1174432 
2270.927 1171940 1171442 1182904 1211278 1253445 1298806 1330512 1332739 
2274.785 1296347 1222310 1122971 1016016 920809 849625 805008 780012 762984 
2279.125 742571 711572 669425 619982 568587 519421 475369 438850 414439 
2283.464 409696 433476 492916 589788 718343 865527 1013824 1147488 1255439 
2287.804 1333270 1382861 1409487 1418595 1414141 1398650 1373621 1342011 
2291.661 1307380 1273882 1243543 1215963 1188153 1156558 1119981 1081448 
2295.519 1048831 1031825 1037638 1068029 1116859 1171375 1215731 1236731 
2299.376 1227526 1189050 1129183 1059758 992869 937013 897035 874226 867619 
2303.716 875322 895707 927018 967298 1014190 1064907 1115630 1162970 1202939 
2308.055 1231414 1245204 1242213 1223606 1194067 1162737 1140777 1138983 
2311.913 1164697 1218024 1291761 1373122 1447949 1504536 1537121 1547362 
2315.770 1541743 1529240 1516472 1506963 1499615 1490205 1474047 1448315 
2319.627 1413542 1373554 1334168 1301564 1280395 1272619 1277139 1289966 
2323.485 1305752 1318514 1324463 1322436 1314659 1306018 1302462 1308411 
2327.342 1323865 1343474 1357666 1354941 1327022 1273450 1202706 1132007 
2331.200 1080684 1064475 1089686 1152039 1237728 1329182 1411182 1473515 
2335.057 1513679 1534228 1541444 1540213 1535225 1528675 1522923 1520662 
2338.915 1524053 1533197 1544237 1547529 1531235 1483423 1399249 1284117 
2342.772 1154697 1033719 944219 901783 908690 953616 1016349 1077761 1124765 
2347.112 1154531 1172505 1187888 1209451 1241848 1285546 1336727 1388180 
2350.969 1432192 1463242 1479334 1483323 1479965 1474313 1468429 1462178 
2354.826 1453169 1441433 1430164 1427205 1442364 1483888 1555443 1653583 
2358.684 1768547 1886435 1995635 2088015 2162666 2223342 2276499 2325398 
2362.541 2368639 2397624 2400123 2363242 2278764 2147582 1980756 1798324 
2366.399 1624448 1484221 1395559 1367305 1396656 1471587 1573100 1679527 
2370.256 1772738 1838684 1871028 1869763 1841346 1794531 1738139 1678696 
2374.114 1619027 1558070 1492533 1419559 1338621 1253212 1171043 1101512 
2377.971 1053647 1032025 1035878 1058297 1089254 1117324 1135362 1141541 
2381.828 1140412 1140412 1151442 1180645 1229288 1292226 1359129 1418030 
2385.686 1457890 1472551 1462178 1432025 1389808 1343972 1300036 1259892 
2389.543 1222908 1187588 1154299 1126526 1110813 1114533 1143169 1196892 
2393.401 1268964 1346332 1413011 1454499 1461946 1435350 1383925 1323532 
2397.258 1271423 1242945 1246234 1281558 1341114 1412645 1482126 1536190 
2401.115 1565319 1563889 1530271 1466933 1379870 1278069 1172239 1074108 
2404.973 993898 938773 911379 910449 930538 964475 1005555 1048432 1089321 
2409.313 1126326 1157820 1182040 1197191 1201610 1194632 1177688 1154365 
2413.170 1129748 1109916 1101080 1107723 1132804 1176193 1234803 1302428 
2417.027 1370197 1428236 1466833 1479134 1462777 1419925 1357600 1285048 
2420.885 1213106 1150644 1104468 1078857 1074639 1090816 1123868 1169083 
2424.742 1219618 1268565 1310405 1342111 1363882 1379039 1391703 1404501 
2428.600 1416601 1423382 1418695 1397487 1360192 1313628 1270260 1244240 
2432.457 1246035 1278368 1335131 1402573 1464206 1507461 1525915 1521227 
2436.314 1501144 1475045 1450310 1430031 1413742 1399448 1386318 1376413 
2440.172 1373720 1382429 1404501 1437211 1473682 1505167 1523687 1525017 
2444.029 1510387 1485351 1458488 1437544 1427172 1427671 1435416 1444259 
2447.887 1448182 1443694 1430596 1412346 1393299 1377410 1365145 1352315 
2451.744 1331309 1294120 1235867 1158916 1073078 995459 944850 935220 971648 
2456.084 1047270 1146126 1246733 1330711 1387681 1417166 1426939 1428601 
2459.941 1431926 1441001 1453402 1462378 1462079 1449844 1428369 1404468 
2463.799 1386551 1380867 1389775 1411880 1443827 1481993 1524153 1569442 
2467.656 1617497 1666588 1713390 1753043 1780524 1792534 1787910 1768047 
2471.513 1735378 1693265 1644337 1591291 1537686 1487945 1447750 1422418 
2475.371 1414706 1423848 1445057 1470523 1491635 1502308 1500579 1489374 
2479.228 1475344 1467099 1472518 1496390 1539980 1600403 1671744 1745425 
2483.086 1812564 1865138 1897018 1905837 1893058 1863474 1823411 1779659 
2486.943 1736509 1695527 1655778 1615335 1573200 1530670 1491868 1461979 
2490.801 1445622 1444392 1456128 1475211 1495093 1509922 1517636 1519431 
2494.658 1520263 1525250 1538617 1561927 1593586 1629736 1666056 1699219 
2498.515 1727228 1749683 1767183 1779825 1787411 1789307 1785248 1775932 
2502.373 1763556 1751579 1742830 1739137 1739537 1741200 1739337 1729657 
2506.230 1710163 1681955 1649160 1617331 1591989 1576226 1570340 1571837 
2510.088 1577956 1586303 1596612 1609781 1627042 1647164 1666156 1677398 
2513.945 1673706 1651721 1613240 1566583 1524519 1500612 1503904 1535392 
2517.802 1586801 1644270 1690936 1713356 1705040 1667520 1608983 1540745 
2521.660 1475444 1422352 1387980 1375316 1385254 1416169 1464240 1523421 
2525.517 1584906 1638783 1677032 1694163 1690803 1672309 1648893 1631033 
2529.375 1627375 1642009 1673906 1716849 1762458 1802017 1828202 1836953 
2533.232 1827537 1802449 1767083 1728359 1694229 1671112 1663029 1669881 
2537.090 1687909 1710263 1728758 1737641 1734879 1722770 1707568 1697456 
2540.947 1698520 1713623 1740967 1774535 1806641 1829933 1840115 1836754 
2544.804 1822978 1803880 1785215 1771507 1764954 1765419 1771142 1779692 
2548.662 1788143 1794897 1798690 1799288 1796959 1792834 1788775 1787045 
2552.519 1791170 1804512 1829933 1868133 1917352 1972701 2026693 2071602 
2556.377 2100867 2111322 2103864 2083621 2058019 2034150 2017505 2010315 
2560.234 2011979 2020235 2032918 2049397 2070836 2099236 2136494 2182680 
2564.092 2235099 2289023 2338523 2377834 2403255 2413051 2408186 2391361 
2567.949 2366307 2337757 2310608 2289956 2280762 2287124 2311341 2353614 
2571.806 2410852 2478193 2548412 2614142 2669347 2709321 2731894 2736829 
2575.664 2726359 2703687 2673447 2641077 2611609 2589842 2578576 2578709 
2579.521 2588175 2602842 2617942 2629042 2633876 2632776 2629242 2628009 
2583.379 2634076 2651044 2679515 2716723 2757969 2796985 2827933 2847276 
2587.236 2854080 2850478 2841240 2832402 2829800 2837838 2858216 2889469 
2591.094 2927462 2965525 2996686 3015169 3017638 3004493 2979904 2950813 
2594.951 2924860 2909115 2907614 2920557 2944675 2974132 3002491 3024145 
2598.808 3036724 3040527 3038726 3035656 3035589 3041428 3053374 3069391 
2602.666 3086309 3100258 3109369 3113173 3113473 3114141 3118880 3130761 
2606.523 3150351 3175851 3203488 3228724 3247818 3258801 3262240 3260103 
2610.381 3255630 3251157 3248185 3246383 3245114 3244013 3243245 3243946 
2614.238 3247184 3252759 3259269 3263575 3262507 3254728 3241509 3227322 
2618.095 3218042 3219544 3234732 3262040 3295425 3326709 3347945 3354222 
2621.953 3345607 3326208 3303404 3284074 3273691 3274792 3286210 3305407 
2625.810 3328979 3353621 3376828 3396197 3409855 3415966 3413796 3404044 
2629.668 3389217 3373088 3360333 3354088 3356560 3366877 3383039 3401406 
2633.525 3419106 3434301 3446725 3457479 3468167 3480692 3496123 3515230 
2637.383 3537544 3562064 3587554 3612544 3635999 3658052 3679438 3701694 
2641.240 3725755 3751756 3777692 3799418 3812287 3812153 3797613 3770439 
2645.097 3736015 3701861 3674559 3659188 3656649 3665036 3680307 3698686 
2648.955 3717601 3736449 3756034 3776923 3799117 3821045 3840901 3857281 
2652.812 3870352 3881718 3894456 3910571 3930865 3953870 3976641 3995668 
2656.670 4008476 4014830 4016535 4016736 4018575 4024996 4037370 4056065 
2660.527 4080849 4111387 4146610 4185249 4224761 4261232 4290343 4308013 
2664.385 4311727 4301688 4280773 4254439 4228408 4208768 4199836 4204051 
2668.242 4221348 4250089 4287064 4328259 4369022 4405538 4434292 4453874 
2672.099 4464118 4466964 4465055 4461674 4459565 4459833 4462879 4467968 
2675.957 4473760 4478848 4482296 4483300 4481426 4476873 4469675 4460737 
2679.814 4450862 4441120 4432484 4425153 4419128 4414007 4410124 4407915 
2683.672 4408852 4414208 4424785 4440016 4457858 4475165 4489293 4498667 
2687.529 4504225 4507707 4511758 4517449 4523509 4525987 4519692 4500743 
2691.386 4467667 4423647 4375315 4331304 4298843 4281911 4279903 4288235 
2695.244 4299512 4307109 4306372 4295631 4276022 4250524 4222687 4195085 
2699.101 4170161 4149889 4135872 4130253 4134233 4148550 4172235 4202780 
2702.959 4237141 4271873 4304499 4333781 4359417 4381941 4401321 4417086 
2706.816 4428400 4434426 4435831 4434325 4433723 4437974 4450795 4474228 
2710.674 4508075 4549927 4596069 4642751 4687195 4728260 4766180 4801892 
2714.531 4836368 4869204 4898759 4922685 4938235 4944100 4940447 4929656 
2718.388 4916017 4904388 4899764 4905729 4924294 4955159 4996686 5045858 
2722.246 5099093 5153006 5204410 5250856 5290465 5321994 5344636 5357718 
2726.103 5360938 5354129 5337122 5310757 5276513 5236737 5195389 5156727 
2729.961 5124909 5103452 5093394 5093662 5100401 5108112 5110727 5102982 
2733.818 5081527 5045624 4997054 4939375 4877380 4815930 4759380 4711144 
2737.676 4672961 4645464 4627413 4616664 4609564 4602465 4592385 4577182 
2741.533 4557260 4534156 4511289 4491770 4477911 4470345 4467533 4466930 
2745.390 4465624 4461273 4453105 4441824 4428936 4416618 4406442 4399714 
2749.248 4396870 4398074 4403865 4414208 4428802 4446242 4464185 4479719 
2753.105 4490197 4494282 4492875 4488925 4486280 4488456 4497429 4512092 
2756.963 4529201 4545072 4556791 4563923 4569046 4576178 4589639 4611406 
2760.820 4640307 4671889 4700626 4721327 4731409 4732313 4728227 4724911 
2764.677 4727389 4738779 4759145 4786917 4819147 4853489 4888605 4923993 
2768.535 4959684 4995580 5030875 5064664 5096210 5125780 5154347 5183351 
2772.392 5214503 5248475 5285098 5324308 5365568 5409649 5457527 5510745 
2776.250 5569709 5633347 5698706 5761960 5819581 5869485 5912174 5950432 
2780.107 5988694 6030723 6078971 6133375 6192289 6252992 6313671 6374190 
2783.965 6436466 6503964 6579916 6667153 6765884 6874297 6988732 7104544 
2787.822 7217658 7324702 7424290 7516922 7604752 7690745 7777801 7868281 
2791.679 7962898 8060540 8159148 8255753 8348191 8435885 8520928 8606764 
2795.537 8697960 8798572 8910505 9032818 9161834 9292274 9418860 9537727 
2799.394 9647275 9748549 9844458 9938319 10033389 10132311 10236649 10348241 
2803.252 10468856 10600640 10745643 10904827 11077327 11260300 11449609 
2806.627 11640805 11830484 12017795 12204300 12393748 12589761 12795212 
2810.002 13010319 13233492 13460608 13688082 13912972 14134179 14352794 
2813.377 14570113 14788262 15008166 15230309 15455210 15683902 15919041 
2816.753 16164588 16424762 16703755 17003600 17324238 17663230 18017164 
2820.128 18382066 18755132 19135166 19522428 19919056 20327990 20752812 
2823.503 21197844 21667574 22166892 22700926 23274702 23893412 24561494 
2826.878 25282898 26061436 26899396 27798490 28759560 29782692 30868288 
2830.254 32017130 33232432 34519840 35887724 37346872 38909792 40589084 
2833.629 42397256 44346544 46448188 48714548 51157720 53789256 56619456 
2837.004 59654668 62896796 66341460 69979816 73798784 77782912 81917952 
2840.379 86189904 90586584 95099912 99722992 104451856 109284984 114220688 
2843.755 119256912 124387736 129600632 134876384 140187376 145496304 
2846.648 150762064 155934416 160956912 165769824 170303744 174484880 
2849.541 178237952 181484032 184150224 186172032 187495104 188084656 
2852.434 187926704 187033728 185443616 183222864 180457808 177241440 
2855.327 173672320 169838640 165812832 161658304 157424528 153155760 
2858.220 148896384 144687760 140573472 136595856 132791784 129196048 
2861.113 125838440 122742080 119926712 117404320 115179080 113246696 
2864.006 111594736 110204392 109052800 108117888 107378208 106813688 
2866.899 106405696 106131048 105960840 105860112 105783720 105682824 
2869.792 105507432 105207592 104743376 104084904 103216592 102139608 
2872.685 100872312 99448280 97909696 96306688 94688232 93096752 91569632 
2876.061 90134952 88814872 87628616 86591944 85719288 85023248 84511424 
2879.436 84187680 84050912 84096264 84316816 84705528 85256200 85962912 
2882.811 86820440 87823184 88963968 90235848 91630880 93141344 94759768 
2886.186 96478120 98286848 100175648 102132648 104146096 106205728 108301952 
2889.562 110427024 112573968 114734336 116900000 119061912 121212080 
2892.455 123345400 125459296 127554032 129630672 131690424 133733256 
2895.348 135759248 137769024 139765376 141753600 143740304 145731232 
2898.241 147729968 149736672 151749424 153765856 155785408 157810864 
2901.134 159847808 161903360 163984304 166095808 168242016 170426880 
2904.027 172655888 174935472 177273632 179677760 182153232 184703328 
2906.920 187330832 190039360 192834880 195725440 198718272 201818320 
2909.813 205024592 208330672 211727072 215205248 218759552 222388704 
2912.706 226093184 229870352 233709520 237590544 241481744 245346864 
2915.599 249146784 252842304 256397008 259771056 262918240 265786944 
2918.492 268315824 270440416 272101152 273244224 273829888 273832832 
2921.385 273241280 272056672 270291360 267968032 265115136 261768368 
2924.278 257967712 253756048 249182592 244301168 239168464 233846496 
2927.171 228394064 222863552 217300704 211738944 206203872 200716160 
2930.064 195292384 189948896 184700944 179559968 174533952 169626704 
2932.958 164838496 160168656 155617632 151188400 146886048 142717024 
2935.851 138687072 134802752 131069360 127494024 124085824 120855032 
2938.744 117813736 114973120 112341984 109927408 107734072 105765256 
2941.637 104024736 102516168 101243248 100209200 99414200 98855432 98526360 
2945.012 98417248 98515464 98807224 99278208 99912368 100694456 101606464 
2948.387 102627736 103735928 104903776 106099360 107289328 108435440 
2951.280 109498112 110441472 111231208 111840416 112250280 112449208 
2954.173 112432856 112201800 111761088 111118976 110287848 109284088 
2957.066 108126048 106832920 105420040 103896136 102262952 100516344 
2959.959 98650880 96663984 94559728 92348792 90047336 87671352 85235152 
2963.335 82748272 80218160 77651664 75058304 72450544 69843592 67252200 
2966.710 64688600 62162028 59678956 57246256 54873008 52570584 50352108 
2970.085 48229132 46207648 44287728 42463312 40724804 39062748 37471648 
2973.460 35950888 34504844 33139228 31859000 30664348 29551244 28510326 
2976.836 27529862 26598982 25708622 24853800 24033468 23249534 22504870 
2980.211 21802382 21143294 20526542 19948750 19404714 18889456 18398384 
2983.586 17928928 17480092 17052702 16647460 16264608 15902543 15557573 
2986.961 15225471 14901612 14583237 14269580 13962343 13664009 13376745 
2990.337 13101419 12836265 12577891 12322159 12065725 11807400 11548752 
2993.712 11293829 11048164 10816667 10602473 10406338 10225929 10056514 
2997.087 9892318 9728320 9560725 9388454 9212732 9036540 8863835 8697655 
3000.945 8540088 8390483 8246601 8104625 7960839 7812277 7657593 7497605 
3004.802 7335283 7173897 7017724 6870123 6733240 6608343 6495455 6394600 
3008.659 6305031 6226707 6158848 6100107 6048496 6000352 5951205 5896724 
3012.517 5833820 5761591 5681954 5599110 5518296 5443871 5378215 5321021 
3016.374 5269604 5220606 5171917 5122729 5074788 5030573 4992060 4958545 
3020.232 4927209 4893330 4851780 4799949 4738309 4670382 4601427 4536065 
3024.089 4476572 4421973 4368621 4312363 4250290 4182238 4110718 4040614 
3027.947 3976875 3923476 3882621 3854072 3836856 3828532 3826827 3828866 
3031.804 3831608 3831808 3826560 3814259 3794471 3768835 3740126 3711418 
3035.661 3685520 3663699 3645789 3630854 3617356 3603657 3588055 3569179 
3039.519 3545127 3514829 3478321 3437674 3397365 3362870 3339497 3330449 
3043.376 3334622 3346576 3358730 3363204 3354890 3333687 3304172 3273524 
3047.234 3248352 3232329 3224017 3218376 3207894 3186565 3152154 3107066 
3051.091 3056911 3009364 2970663 2944575 2931298 2928129 2931332 2936235 
3054.948 2939137 2937203 2928563 2911617 2886333 2852946 2813559 2770840 
3058.806 2728460 2689784 2657578 2633476 2617609 2609042 2607009 2610809 
3062.663 2620442 2636276 2658178 2685116 2714289 2741297 2760103 2765438 
3066.521 2753667 2724558 2681315 2630643 2581409 2541113 2515284 2505220 
3070.378 2507986 2517817 2528282 2534147 2533214 2526182 2515584 2503853 
3074.236 2491656 2477294 2457433 2428311 2388662 2340289 2288657 2241926 
3078.093 2207989 2192837 2198265 2221377 2255382 2290988 2319402 2333293 
3081.950 2329096 2307576 2273268 2233400 2196567 2170659 2160835 2168594 
3085.808 2191205 2223176 2256648 2283793 2299083 2298849 2282261 2250919 
3089.665 2207423 2155674 2099802 2045169 1996700 1959288 1936023 1927569 
3093.523 1931031 1941348 1952365 1958655 1958289 1952698 1946673 1945542 
3097.380 1953663 1971869 1997433 2024596 2046766 2058218 2055955 2040042 
3101.238 2012778 1978426 1941348 1905904 1875920 1854423 1843608 1843542 
3105.095 1852892 1867634 1882375 1891926 1892459 1883540 1867733 1850197 
3108.952 1836155 1829434 1830798 1838584 1848733 1857817 1864273 1868732 
3112.810 1873557 1880945 1892093 1904706 1914656 1916287 1905305 1880046 
3116.667 1842244 1797292 1752245 1713855 1686978 1673740 1673374 1683153 
3120.525 1699618 1719710 1741666 1764188 1787643 1811799 1836820 1861577 
3124.382 1884772 1904772 1920314 1930964 1937188 1940316 1941914 1943578 
3128.240 1946307 1950135 1954961 1960553 1967209 1975996 1987913 2003857 
3132.097 2022964 2042705 2058884 2066974 2063112 2046034 2017672 1983120 
3135.954 1948504 1920247 1902476 1895920 1897817 1903075 1905837 1901245 
3139.812 1887001 1863041 1832495 1799155 1767881 1742631 1726629 1721706 
3143.669 1728725 1747255 1775566 1810801 1849265 1886702 1919116 1944111 
3147.527 1960586 1969240 1972135 1971636 1969406 1966044 1961152 1953496 
3151.384 1942047 1926604 1908100 1888399 1869630 1853591 1840680 1830631 
3155.241 1822213 1814427 1806841 1800786 1798324 1802283 1815093 1837353 
3159.099 1867534 1902343 1937021 1966777 1987913 1999430 2002326 1999996 
3162.956 1995735 1992373 1990476 1987979 1981122 1965612 1938586 1900080 
3166.814 1853558 1805377 1763955 1736443 1727960 1740169 1771142 1814926 
3170.671 1864672 1913159 1953729 1981955 1995669 1994637 1980690 1956791 
3174.529 1926937 1894023 1860546 1827038 1793133 1757468 1719577 1680558 
3178.386 1643339 1612342 1592023 1585205 1591657 1608385 1629736 1649825 
3182.243 1664293 1671444 1672875 1672409 1674671 1682554 1697223 1717515 
3186.101 1741200 1766251 1791935 1817821 1844174 1869996 1892625 1907568 
3189.958 1910397 1897617 1868931 1827570 1779925 1733748 1695893 1671311 
3193.816 1661034 1663561 1674937 1691469 1709165 1725532 1739304 1749284 
3197.673 1755206 1756037 1751413 1741333 1726263 1707801 1687344 1666688 
3201.531 1646964 1628240 1610014 1591524 1571803 1550322 1527179 1503405 
3205.388 1480298 1459220 1441699 1428668 1420789 1417598 1417997 1420457 
3209.245 1422318 1421055 1414108 1399847 1377543 1348692 1316919 1286842 
3213.103 1264810 1256834 1266970 1296945 1344438 1403769 1466567 1523388 
3216.960 1565751 1587101 1584374 1558170 1512715 1454565 1391670 1332207 
3220.818 1282422 1246832 1226895 1221446 1226696 1237827 1250454 1260855 
3224.675 1268033 1273151 1278700 1287806 1301199 1316653 1329083 1330478 
3228.532 1313030 1271689 1206394 1123337 1033652 952620 894047 868449 879671 
3232.872 924594 992835 1070952 1145030 1203171 1239090 1252216 1246965 
3236.729 1230484 1211046 1195895 1188652 1190379 1198985 1211179 1223307 
3240.587 1232677 1238093 1239422 1237395 1232777 1226696 1219718 1212807 
3244.444 1207590 1205696 1209318 1219685 1236664 1257565 1278335 1293655 
3248.302 1298274 1289169 1265973 1231846 1192207 1153568 1121875 1100648 
3252.159 1091048 1090882 1096728 1104103 1108753 1107890 1100449 1086863 
3256.017 1069092 1050392 1034449 1024652 1023788 1032656 1049993 1071948 
3259.874 1093772 1109816 1115929 1110813 1095865 1075038 1053813 1037106 
3263.731 1027906 1026678 1031062 1037173 1040959 1039099 1030264 1014887 
3267.589 994994 973209 952886 936980 928081 928313 938474 958564 987356 
3271.928 1022327 1060057 1097127 1130213 1157421 1177555 1191177 1198652 
3275.786 1201144 1199251 1193669 1185196 1175063 1164863 1156425 1151641 
3279.643 1151209 1155262 1162338 1170179 1176259 1177787 1173402 1162970 
3283.501 1147588 1129449 1111510 1096064 1085235 1079621 1079322 1083441 
3287.358 1091115 1101478 1114002 1127622 1142040 1155295 1165727 1171043 
3291.216 1169647 1161541 1148352 1133236 1120646 1114434 1117058 1128552 
3295.073 1146956 1168451 1188818 1204666 1213903 1216462 1213671 1207790 
3298.930 1200879 1194632 1190014 1186658 1184000 1180944 1176691 1170810 
3302.788 1163667 1156458 1150810 1148053 1149448 1154697 1162338 1169714 
3306.645 1174432 1174033 1167488 1155162 1138518 1119317 1099618 1081249 
3310.503 1065671 1054776 1050458 1055208 1069756 1093141 1122639 1153069 
3314.360 1178385 1193934 1197124 1188818 1171674 1150378 1128685 1108886 
3318.218 1091613 1076466 1063146 1052451 1046539 1047037 1054544 1067763 
3322.075 1082113 1092045 1092842 1081913 1060290 1032589 1005023 983603 
3325.932 972080 971748 981146 997817 1018873 1042653 1067929 1094137 1120613 
3330.272 1146458 1170312 1191708 1210813 1228158 1244971 1261088 1275211 
3334.129 1284715 1286011 1276274 1255273 1225500 1192140 1162106 1141774 
3337.987 1134532 1140545 1156159 1175661 1192473 1201842 1201742 1193702 
3341.844 1181575 1170545 1164797 1166226 1173568 1183469 1191077 1192772 
3345.702 1187157 1175561 1162372 1152239 1149315 1154963 1167687 1183004 
3349.559 1195496 1200546 1195363 1179681 1155627 1126758 1096728 1068494 
3353.417 1044546 1026744 1016448 1015385 1024851 1046008 1078592 1121310 
3357.274 1170445 1220981 1266438 1299537 1314027 1305719 1273682 1221944 
3361.131 1158684 1096097 1045509 1016847 1014588 1036276 1073875 1116228 
3364.989 1152338 1174266 1179880 1171774 1155860 1138186 1122971 1111079 
3368.846 1101312 1091347 1079655 1066634 1054112 1044745 1039863 1039365 
3372.704 1041324 1042686 1040893 1034848 1025150 1013824 1003529 996688 
3376.561 995127 999843 1011168 1028969 1052219 1079090 1106727 1131276 
3380.418 1148917 1157621 1156890 1148950 1138153 1129682 1127589 1133269 
3384.276 1144963 1157986 1166525 1164863 1149448 1120347 1081614 1039697 
3388.133 1003861 982806 983171 1008544 1057500 1124167 1198088 1267734 
3391.991 1320874 1348659 1347097 1317683 1266770 1202706 1134930 1071118 
3395.848 1016481 974072 944086 925325 915629 912375 913139 915895 919116 
3400.188 922137 925292 930106 939138 955243 980847 1017046 1062382 1112540 
3404.527 1160312 1197822 1217625 1214302 1187323 1140711 1083441 1025814 
3408.385 978655 949366 940433 949167 969191 992138 1010271 1018673 1015219 
3412.724 1000706 977293 947672 914633 880833 849326 824328 809954 810751 
3417.064 829739 866855 918916 979850 1041358 1095101 1134499 1155893 1158916 
3421.404 1147056 1125230 1098987 1072746 1049562 1030696 1015651 1003297 
3425.261 992238 982275 974172 969921 971947 982241 1001570 1028205 1058828 
3429.601 1089221 1114633 1132505 1141807 1143502 1139581 1131343 1119516 
3433.458 1103040 1080252 1049927 1012297 969755 927151 890096 864565 854472 
3437.798 861344 882792 913869 946709 972578 983968 975301 944983 895707 
3442.137 834885 772179 718177 681571 667998 678286 709946 757142 811647 
3446.477 864764 908490 936847 947506 940931 922038 896670 872333 856331 
3450.816 853874 867187 895143 933062 973740 1009341 1033553 1041856 1033154 
3455.156 1009341 974537 934257 893948 859153 833557 819216 816162 822602 
3459.496 835150 850189 864531 876185 885083 891922 898065 904440 910815 
3463.835 916825 921340 923764 923764 921374 916360 907528 893084 871603 
3468.175 843383 810585 778917 754288 742405 745824 763117 789240 816759 
3472.514 839632 854306 861709 865461 870574 880434 894744 910283 922204 
3476.854 926221 921506 909852 896239 886178 882659 886278 893549 899758 
3481.194 899492 890727 874657 856099 840595 833490 837142 850787 870341 
3485.533 890362 904905 909188 901617 883157 857991 831864 810352 797207 
3489.873 793821 798535 807730 817456 824328 826718 825556 822801 820676 
3494.212 820676 822568 824892 825125 821971 815033 805672 796742 790501 
3498.552 788443 790435 795879 803248 812012 822801 836910 855103 877114 
3502.892 900455 920875 933626 935187 925126 905801 882194 859452 841989 
3507.231 832295 829805 831698 833656 831299 821838 804875 782601 759001 
3511.571 738024 723188 716152 717115 724317 734938 745393 751732 751068 
3515.910 741941 724450 700819 674834 651074 633852 626851 631695 648254 
3520.250 674967 709415 748778 789738 829507 864399 892022 909719 917157 
3524.590 914866 905303 891922 878276 867387 861444 861245 866059 874657 
3528.929 885415 896438 906365 913371 915696 912242 902016 885813 865494 
3533.269 844147 825291 811182 803149 800526 801721 804543 808161 813439 
3537.608 822369 837341 859253 886610 916360 943854 964707 975865 976895 
3541.948 969722 956804 941396 925192 908656 890727 869711 843881 812377 
3546.288 775631 735203 694082 655919 624727 604453 597685 605748 626983 
3550.627 657611 690797 719538 737560 742140 734539 719305 701649 685587 
3554.967 673507 666206 664580 669923 684425 709780 746023 790070 834586 
3559.306 870142 887407 881663 853775 810850 764611 726507 704702 702413 
3563.646 717745 744828 775730 803082 821573 829307 828013 822303 817456 
3567.986 816493 820444 827216 834022 837474 834785 823896 804709 778054 
3572.325 747185 716119 688242 665974 649415 636872 625855 614043 600671 
3576.665 586437 572967 561454 552496 546127 541880 540520 544501 557738 
3581.004 584048 625855 682500 749342 819979 885514 938375 972843 985164 
3585.344 974338 941363 890528 828743 766469 714360 679912 664912 666040 
3589.684 677124 691096 702114 705665 699923 685155 664348 642679 626253 
3594.023 620878 630468 655886 694846 742273 792228 837740 872234 890295 
3598.363 888303 865727 825822 775896 725313 684624 662390 662390 684558 
3602.702 725147 779016 839931 902447 960955 1009441 1042055 1051920 1033752 
3607.042 985131 909420 816892 722757 643409 591480 573597 590817 640124 
3611.382 715887 809124 908690 999909 1068693 1106029 1109816 1085335 1041789 
3615.721 990046 939437 898065 871902 864332 875089 899326 929044 954878 
3620.061 969755 971150 960357 941562 919448 899160 885016 880932 890163 
3624.400 914799 955808 1012330 1082212 1160245 1237362 1299737 1327321 
3628.258 1301631 1217425 1094735 967530 864166 797107 765175 762221 781473 
3632.597 817025 863170 914035 963678 1005621 1034881 1048200 1045078 1028371 
3636.937 1004227 981345 969091 974603 1000241 1042088 1090683 1134266 
3640.794 1161907 1166823 1148352 1112275 1068560 1027109 995691 978256 
3644.652 974836 983238 1000440 1022858 1047170 1068992 1083242 1083807 
3648.509 1065305 1026744 973674 917920 873562 850886 851982 872599 905037 
3652.849 941330 973740 995758 1001238 985728 947905 892121 828511 769324 
3657.188 724383 697733 688076 691328 703010 719040 736298 752761 767565 
3661.528 780709 792194 802618 811414 818021 821739 822303 820444 818286 
3665.868 819149 826851 844944 874956 915164 958365 992603 1003064 980946 
3670.207 930405 869843 821672 801290 816759 868615 953815 1063877 1183070 
3674.547 1285048 1336195 1315922 1234504 1125230 1018939 932464 869412 
3678.404 827116 800991 785954 777655 771581 764511 754819 743036 731818 
3682.744 725777 730756 751799 792427 853111 932265 1026379 1130878 1240585 
3687.083 1347529 1440902 1507062 1532200 1508293 1437644 1332306 1210248 
3690.941 1090948 990112 917754 877712 868084 883257 915696 958332 1003994 
3695.281 1046207 1079788 1100482 1106029 1095997 1072812 1040096 1002201 
3699.138 963280 926089 891690 858721 825125 788576 749176 709415 673938 
3703.478 647258 632193 629107 636507 651306 670222 690830 712634 737526 
3707.817 769656 814137 876484 959627 1062449 1176857 1288172 1377177 1425942 
3712.157 1425443 1377111 1292425 1186791 1075669 971283 882858 817423 779116 
3716.496 770884 793190 843915 917024 1003861 1094071 1176359 1241050 1279498 
3720.836 1286111 1259194 1202640 1125828 1041457 963545 903078 865793 852546 
3725.176 858555 876019 894578 906033 905635 893748 873827 851086 830403 
3729.515 814900 806933 807995 819348 842753 880634 935486 1008311 1097260 
3733.855 1195363 1288869 1359827 1390041 1371128 1310438 1226563 1138718 
3737.712 1059825 994961 944949 909022 887971 884319 901186 941463 1005023 
3742.052 1086896 1174864 1248593 1279431 1245503 1151043 1034283 940998 
3745.909 899360 914998 980149 1082279 1207225 1340117 1462212 1553747 
3749.767 1597975 1585172 1517569 1409321 1282755 1161674 1065671 1005655 
3753.624 983138 993201 1026777 1073676 1123569 1167488 1199184 1215000 
3757.481 1214103 1197024 1164564 1117423 1057400 990046 924528 872533 843915 
3761.821 843682 871835 922469 986027 1049296 1099452 1126426 1128353 1111809 
3766.161 1089155 1071915 1065139 1066866 1069324 1062449 1038069 994662 
3770.018 939304 884950 843649 821407 817224 825291 837972 848430 852978 
3774.358 851252 845774 840562 839001 843350 853210 866656 880766 892918 
3778.697 900854 903145 898696 886411 865129 834088 794319 748114 701616 
3783.037 662622 639725 640057 664580 707192 755416 795779 817821 817523 
3787.376 797937 767830 738157 718808 716152 731353 760993 798568 837607 
3791.716 873562 904506 931634 956937 982374 1007680 1030563 1047037 1053348 
3796.056 1048233 1035014 1020865 1014422 1021995 1046240 1085634 1134698 
3799.913 1182738 1214468 1214634 1175628 1105000 1022725 949764 897633 
3803.771 869511 863336 874724 898098 926952 953882 971316 974305 962781 
3808.110 939935 910748 879339 849691 824826 808095 802485 809622 828976 
3812.450 857327 889532 918452 936781 938275 919581 884419 843284 811049 
3816.789 798501 808692 838570 882526 934822 990112 1043184 1087793 1118553 
3821.129 1133336 1136060 1134200 1133668 1137223 1143601 1148983 1147953 
3824.986 1135429 1107790 1065770 1015087 966335 929409 910350 909719 921838 
3829.326 938308 949266 946776 927184 893018 851916 814966 792128 789141 
3833.666 807663 846139 902248 972711 1054378 1141475 1225267 1293389 1330977 
3838.005 1327022 1279365 1198154 1102707 1013824 948469 914268 909951 927550 
3842.345 955874 983138 999942 1002001 990212 968460 941861 914467 888668 
3846.684 865627 846172 831764 824660 828013 844379 875620 921772 980946 
3851.024 1049495 1120413 1184033 1226297 1235136 1208421 1159215 1105398 
3854.881 1059160 1025150 1002267 988352 981577 980648 984732 992835 1004260 
3859.221 1018374 1034350 1051853 1070221 1088424 1105033 1116460 1118819 
3863.078 1107956 1081216 1040129 991142 944684 910649 895309 898828 917024 
3867.418 942293 966434 980980 979452 960689 931866 905170 890262 890262 
3871.758 901518 917389 930040 933460 924694 904971 879638 855999 840595 
3876.097 836445 844977 866059 899061 942625 994396 1050458 1104202 1149216 
3880.437 1180445 1197224 1202606 1201776 1198819 1195662 1190844 1181874 
3884.294 1164996 1138120 1102409 1062515 1025316 995226 973209 957203 944219 
3888.634 932597 921672 912442 907229 908656 917555 932530 950262 967198 
3892.973 980980 991440 999112 1004957 1009208 1011466 1011002 1006518 997784 
3897.313 984898 969489 953483 939338 928081 919913 913305 906996 899858 
3901.653 892088 885149 880800 880899 886212 895707 906996 916825 922204 
3905.992 921606 914567 901949 886112 870109 857227 850687 853011 864531 
3910.332 883755 907229 930306 948137 957468 957203 948834 935685 922104 
3914.671 912541 910283 916858 931733 952222 974139 994031 1009540 1019404 
3919.011 1023456 1022393 1015950 1004227 987256 966202 942857 920776 904938 
3923.351 899526 908059 930870 964077 1000640 1032689 1054544 1063545 1060257 
3927.690 1048399 1032457 1017146 1006153 1000806 999843 999975 996754 987190 
3932.030 969755 946012 919913 896670 880302 873197 875753 886245 901551 
3936.369 918086 932929 943688 949565 951093 949200 944385 936615 924760 
3940.709 907594 884452 856497 826984 801157 784095 778817 785887 802651 
3945.049 825291 849392 871304 888403 899127 902613 898696 887639 870242 
3949.388 848396 825257 804676 791531 789672 801522 826818 862539 903444 
3953.728 942824 974537 994197 999843 992736 976164 954546 932265 912309 
3958.067 896106 883921 875720 871503 872333 879472 894612 917953 947539 
3962.407 979751 1008942 1029999 1039232 1035379 1020533 998714 975932 957468 
3966.747 947905 948801 959361 975932 993699 1006983 1010968 1003097 983138 
3971.086 953882 920510 889532 867486 859352 867420 890860 925823 966567 
3975.426 1007182 1042686 1069922 1087029 1094735 1093639 1085368 1071650 
3979.283 1054477 1036176 1019404 1006153 997950 994994 996688 1001304 
3983.141 1007381 1013592 1019769 1025947 1032589 1039398 1046107 1052285 
3986.998 1057500 1062349 1067597 1074240 1082312 1090816 1097393 1099286 
3990.855 1094403 1082179 1064508 1044646 1026877 1014821 1010404 1013360 
3994.713 1021330 1030530 1037472 1039365 1034649 1023688 1008212 991108 
3998.570 975832 965106 961420 964874 973773 
##END=
