##TITLE=ab_0 31 12:55:29 2026 (GMT+02:00)
##JCAMP-DX=5.01  $$ Nicolet v. 970
##DATATYPE=INFRARED SPECTRUM
##ORIGIN=Vojna akademija
##OWNER=Nicolet
##LONGDATE=2026/08/31
##TIME=12:56:03
##SPECTROMETER/DATA SYSTEM=Nicolet iS20
##DATA PROCESSING=
Ratio against background
%Transmittance->Absorbance
Truncated
ElementMultiply or ElementDivide
##COMMENTS=
Number of sample scans: 8
Collection length: 11,90 sec
Sample gain: 8,0
Background collected on: Mon Aug 31 12:50:07 2026 (GMT+02:00);
Number of background scans: 8
Background gain: 8,0
Sample spacing:  1,000
Number of scan points: 12415
Resolution points: 8286
Number of FFT points: 65536
Apodization: N-B strong;
Phase correction: Mertz;
Laser frequency: 15798,00 cm-1
Number of rejected sample scans: 0
Number of rejected background scans: 0
Bench serial number: BER2010005;
##RESOLUTION= 4,000
##XUNITS=1/CM
##YUNITS=ABSORBANCE
##FIRSTX=400.156891
##LASTX=4000.123047
##FIRSTY=0.013660
##MAXX=4000.123047
##MINX=400.156891
##MAXY=0.286030
##MINY=-0.002123
##XFACTOR=1.000000
##YFACTOR=1.000000E-009
##NPOINTS=7468
##DELTAX=0.482117
##ZPD=6100
##XYDATA=(X++(Y..Y))
400.157 13660282 9735029 6617022 4736299 4162567 4637460 5743661 7028264 
404.014 8153847 8954847 9423499 9679529 9878387 10121627 10402808 10611641 
407.871 10589029 10222604 9495493 8529714 7545106 6801727 6481396 6636098 
411.728 7182825 7955339 8774093 9510835 10138212 10721155 11361202 12124223 
415.585 12986421 13798921 14299987 14117920 12900704 10534539 7462479 
418.959 4651224 3090681 3156526 4524447 6588797 8811895 10872041 12587544 
422.816 13890084 14763854 15200866 15193180 14731940 13822318 12503236 
426.191 10857433 9019557 7149981 5433940 4039477 3072828 2570210 2488824 
430.048 2730760 3164503 3669647 4157549 4587396 4972252 5364561 5830293 
433.905 6415280 7118218 7868787 8545495 9001256 9140345 8972639 8620993 
437.762 8264162 8069586 8131667 8431629 8844120 9168838 9215711 8865323 
441.619 8146690 7239152 6444268 6050478 6215984 6915469 7960670 9085462 
445.476 10033524 10649399 10893174 10847818 10664782 10515869 10520145 
448.851 10706144 11019037 11345999 11552121 11505574 11124711 10401214 
452.225 9422855 8343531 7349942 6598990 6169031 6061432 6209565 6506588 
456.082 6820912 7035134 7073828 6931763 6681890 6441544 6318344 6366524 
459.939 6587889 6946847 7390080 7847937 8243089 8507412 8588819 8477442 
463.796 8208039 7853233 7494739 7209471 7048368 7026311 7126134 7312436 
467.653 7552052 7830562 8152396 8525288 8940641 9358051 9705178 9890962 
471.510 9843746 9540673 9029842 8407474 7780702 7218938 6737278 6323958 
475.367 5974148 5715190 5613543 5741109 6136130 6759792 7493729 8162896 
479.224 8595037 8684371 8405887 7822026 7046886 6214472 5429981 4753484 
483.081 4215560 3842204 3682245 3811284 4297070 5165814 6367902 7791463 
486.938 9282356 10689300 11897499 12819509 13405996 13635049 13503331 
490.313 13027868 12258112 11288014 10250626 9320675 8669869 8411326 8578309 
494.170 9110906 9888827 10754609 11555149 12149812 12415569 12273825 
497.544 11698463 10737288 9506398 8192541 7024190 6216018 5942639 6257799 
501.401 7063961 8111647 9102346 9791384 10068383 9974087 9639483 9209381 
505.258 8771456 8345929 7901516 7408044 6882814 6416020 6144834 6208220 
509.115 6675935 7521608 8619034 9791011 10837389 11589655 11953862 11905331 
512.972 11485535 10774682 9880489 8919603 8013217 7284839 6823874 6665437 
516.829 6764571 7014390 7273956 7425402 7418324 7271598 7052309 6829360 
520.686 6646326 6504435 6379267 6246572 6103131 5971192 5885573 5868142 
524.543 5910864 5977810 6031865 6068925 6144297 6353680 6794659 7501347 
528.400 8417136 9396445 10260499 10842519 11053262 10916754 10561121 
531.775 10162836 9862286 9719137 9693522 9686034 9593107 9373387 9066617 
535.632 8777644 8615484 8644214 8846318 9136217 9392822 9518286 9480490 
539.489 9317087 9115035 8968749 8953189 9098556 9400136 9831070 10360592 
543.346 10956577 11577711 12168314 12646487 12920740 12916576 12599926 
546.720 11995654 11175297 10237260 9269053 8341233 7513921 6845281 6410404 
550.577 6293601 6558286 7222139 8226442 9440057 10664544 11695297 12366986 
554.434 12593342 12394465 11879416 11209160 10534776 9977884 9606691 9438330 
558.291 9457191 9629252 9914149 10262229 10618499 10921034 11105403 11124745 
562.148 10958276 10621623 10160360 9640500 9128536 8673418 8303439 8021825 
566.005 7815380 7662517 7544904 7453243 7388395 7359176 7376970 7450816 
569.862 7581486 7763127 7985172 8235965 8507210 8795022 9096695 9405926 
573.719 9707312 9971578 10157884 10225590 10145233 9915267 9565026 9150159 
577.576 8732339 8358460 8057367 7836027 7690745 7616722 7613688 7683865 
581.433 7824759 8022567 8248459 8464772 8639380 8753571 8813991 8847975 
585.290 8895591 8990634 9149313 9366379 9621562 9888115 10139467 10354722 
589.147 10510912 10579658 10530432 10336975 9997244 9547752 9069662 8660269 
593.004 8402542 8329885 8410177 8556781 8658004 8626063 8420954 8070294 
596.861 7650579 7262366 6983479 6845685 6834072 6904393 7009845 7126875 
600.717 7264556 7454053 7724742 8081164 8493120 8901915 9242550 9461052 
604.574 9538234 9491395 9367294 9221261 9101906 9040904 9045471 9102616 
608.431 9182375 9247188 9254363 9166740 8962051 8638130 8218202 7746126 
612.288 7278977 6867363 6546917 6332599 6220118 6193599 6233060 6320092 
616.145 6435020 6554687 6653022 6701945 6682597 6594449 6459166 6313066 
620.002 6197297 6139961 6144969 6193364 6253833 6301366 6330649 6362186 
623.859 6432027 6577259 6811622 7116298 7440738 7724337 7912516 7978118 
627.716 7925102 7780533 7580239 7354626 7126066 6909745 6719948 6577259 
631.573 6504267 6519436 6625736 6806237 7022708 7228304 7386137 7479469 
635.430 7518237 7528621 7538397 7558727 7577508 7561897 7476839 7299935 
639.287 7036548 6720789 6410169 6166948 6037241 6043221 6177064 6409698 
643.144 6699791 7007824 7303237 7563751 7776012 7930097 8016796 8027596 
647.001 7957397 7808127 7593186 7341079 7091207 6885911 6765244 6752691 
650.858 6851340 7042677 7293398 7561256 7806002 8001304 8136292 8217865 
654.715 8263723 8297799 8343395 8418352 8535762 8701745 8915714 9168229 
658.571 9441479 9707820 9934693 10093546 10164600 10144826 10047562 9899708 
662.428 9733538 9579558 9461594 9393127 9379618 9421400 9519098 9672786 
666.285 9880353 10131869 10393442 10605970 10709845 10686684 10573546 
669.660 10425378 10277123 10135160 9989038 9822936 9627084 9403183 9167450 
673.517 8943651 8757967 8626739 8552456 8524747 8523733 8526031 8506534 
677.374 8445548 8326203 8137979 7880191 7564864 7220117 6885406 6608141 
681.231 6429168 6371870 6439829 6617191 6875308 7179894 7503505 7826850 
685.088 8140850 8443217 8730209 8994118 9220719 9391197 9489634 9508261 
688.945 9450352 9330730 9170970 8996791 8831067 8692821 8593415 8536202 
692.802 8516265 8524274 8550969 8590981 8645735 8723009 8833130 8981772 
696.659 9165522 9368580 9567398 9734928 9848965 9900047 9893573 9847644 
700.516 9787452 9741027 9732182 9778777 9892691 10076929 10325065 10620707 
704.373 10941999 11264822 11572810 11863956 12154072 12472545 12849746 
707.747 13306462 13839934 14422904 15009744 15557264 16039116 16461447 
711.122 16860384 17295066 17823278 18479730 19268602 20163546 21123432 
714.497 22108734 23101972 24111392 25166208 26299024 27530496 28855298 
717.872 30242336 31635068 32965246 34168656 35187880 35982312 36531316 
721.247 36833160 36906056 36784940 36514700 36134636 35672352 35136288 
724.621 34519876 33811952 33009790 32126610 31192638 30243794 29309568 
727.996 28407978 27543840 26718594 25940810 25230220 24615424 24121656 
731.371 23755678 23498526 23306970 23128496 22912964 22633866 22292438 
734.746 21913920 21531622 21175510 20861854 20590636 20351638 20131546 
738.121 19919126 19705146 19482540 19244600 18986920 18712062 18432814 
741.496 18171884 17952306 17788170 17673028 17580552 17468744 17298652 
744.870 17053358 16747005 16422698 16136872 15941210 15860064 15886184 
748.245 15982736 16102793 16201010 16248062 16233891 16159808 16030967 
751.620 15849205 15614036 15328122 15001615 14656674 14321081 14021474 
754.995 13777066 13595492 13475612 13414095 13409823 13464778 13579526 
758.370 13745431 13938632 14121959 14251810 14290674 14221338 14051145 
761.744 13810209 13537923 13275065 13053510 12892921 12805346 12798351 
765.119 12875685 13035038 13263793 13533480 13799435 14013980 14134487 
768.494 14137910 14027771 13831485 13587628 13331403 13088066 12866675 
771.869 12664533 12476467 12300002 12140203 12006009 11904650 11836682 
775.244 11793850 11761916 11724809 11670347 11592683 11490638 11364807 
778.619 11214838 11039769 10839699 10619960 10393204 10177455 9993209 
781.993 9858016 9779116 9752615 9763629 9791417 9813344 9811752 9776608 
785.850 9704906 9600830 9473853 9336350 9200210 9075210 8966956 8875029 
789.707 8794650 8719494 8646647 8578680 8525828 8502783 8523597 8594226 
793.564 8707526 8841888 8968749 9057685 9088811 9059411 8984174 8889233 
797.421 8803476 8750055 8738459 8764897 8815040 8872729 8925658 8968816 
801.278 9004402 9037487 9071489 9103462 9124644 9123020 9088608 9017833 
805.135 8915646 8794482 8670511 8555328 8453825 8362614 8273855 8181330 
808.992 8087544 8004881 7954023 7955541 8020306 8143449 8305331 8475314 
812.849 8623393 8732339 8801413 8847028 8891769 8955252 9041818 9138653 
816.706 9219062 9256021 9233073 9153847 9040533 8928059 8850681 8828531 
820.563 8861265 8927518 8994389 9025308 8994626 8895455 8740859 8560161 
824.420 8390989 8271321 8225023 8257914 8352852 8476294 8583074 8631404 
828.277 8595274 8471597 8282399 8067999 7877829 7752569 7715332 7767681 
832.133 7891563 8055948 8226307 8376058 8486666 8551577 8572935 8558945 
835.990 8521874 8475719 8436088 8416494 8425954 8467543 8536980 8625219 
839.847 8722029 8818557 8909964 8993510 9065466 9119332 9145997 9137333 
843.704 9091281 9015566 8926976 8845709 8785792 8748601 8721184 8684641 
847.561 8622684 8534918 8440312 8371802 8360351 8419332 8533228 8661926 
851.418 8752692 8762835 8681227 8535999 8386293 8297529 8321846 8474401 
855.275 8729162 9026966 9300263 9493562 9577694 9554357 9448421 9294711 
859.132 9124441 8962119 8823932 8719358 8656145 8637690 8661655 8717194 
862.989 8786502 8849937 8894474 8920550 8943989 8990601 9082180 9227624 
866.846 9413205 9605641 9757427 9825342 9781454 9619361 9355275 9022805 
870.703 8664764 8322893 8035224 7831675 7732061 7746025 7869664 8085619 
874.560 8359743 8650062 8913786 9115441 9237812 9284048 9274199 9236052 
878.417 9198146 9179126 9183831 9204915 9226914 9234732 9217674 9173576 
882.274 9109891 9042495 8991007 8976360 9018239 9129009 9312856 9562283 
886.131 9858287 10170434 10464647 10709948 10883423 10977543 10999055 
889.505 10967111 10904998 10833142 10762795 10692798 10612184 10506805 
892.880 10366667 10191091 9990158 9780777 9581015 9402879 9248643 9111956 
896.737 8983869 8856565 8728892 8607847 8505114 8432609 8398860 8407136 
900.594 8455887 8541575 8659593 8804355 8967023 9131886 9277922 9379448 
904.451 9414289 9372710 9262521 9109756 8949840 8819233 8740149 8715369 
908.308 8729060 8756546 8775041 8775750 8767433 8771895 8813620 8905872 
912.165 9044491 9207047 9361538 9475749 9532104 9530987 9490244 9434843 
916.022 9389741 9370984 9381412 9414763 9459901 9508024 9554052 9598256 
919.879 9641516 9681765 9712394 9722119 9698977 9636332 9537151 9416049 
923.736 9295964 9205253 9166841 9191073 9271457 9386084 9505044 9598798 
927.593 9651036 9663605 9657472 9662250 9706668 9803720 9945066 10101177 
931.450 10233460 10309389 10314411 10259312 10173996 10096700 10054853 
934.824 10055904 10084254 10111385 10109181 10066315 9995583 9931574 9916590 
938.681 9982360 10138144 10364122 10618431 10850978 11025631 11130048 
942.056 11181518 11216606 11281314 11411884 11621781 11898486 12207674 
945.431 12505895 12749419 12911320 12984338 12982665 12934599 12874866 
948.806 12833774 12828655 12862067 12922482 12992020 13050881 13085027 
952.181 13088988 13064334 13016669 12952043 12874320 12785623 12688994 
955.555 12590750 12500610 12431764 12395828 12397772 12433537 12490448 
958.930 12550742 12596617 12618106 12614149 12593104 12567284 12548867 
962.305 12545149 12556813 12579869 12609339 12642257 12679817 12725705 
965.680 12783814 12854831 12935316 13017148 13090389 13146907 13182017 
969.055 13195270 13190351 13172180 13145678 13113302 13075329 13030668 
972.429 12976657 12911046 12832614 12741468 12638845 12527347 12410250 
975.804 12291651 12174482 12061127 11951376 11844003 11736248 11626613 
979.179 11515917 11409672 11315934 11246256 11210214 11212356 11250098 
982.554 11312465 11382903 11442057 11474036 11469374 11427089 11354161 
985.929 11262850 11166866 11076884 10999395 10936495 10887160 10849551 
989.304 10822748 10806748 10801517 10805525 10814968 10823461 10824243 
992.678 10812047 10785824 10749345 10710525 10678976 10662473 10665460 
996.053 10687500 10724925 10771252 10820744 10868236 10909108 10939111 
999.428 10953043 10945023 10911147 10850094 10765070 10663321 10554569 
1002.803 10447200 10347460 10257615 10177523 10106535 10044884 9993887 
1006.178 9953881 9922217 9891572 9851067 9789926 9704228 9600526 9497119 
1010.035 9418623 9389843 9423601 9515746 9643142 9773694 9872828 9917708 
1013.891 9903776 9843881 9760986 9677835 9609672 9558591 9516999 9473108 
1017.748 9419605 9357069 9294203 9242449 9211988 9207622 9228436 9270644 
1021.605 9331610 9410700 9508532 9622443 9743602 9855982 9941913 9987818 
1025.463 9990565 9961034 9921640 9897844 9908319 9958559 10038611 10129733 
1029.320 10211546 10272848 10315463 10352245 10398363 10462746 10539563 
1032.695 10609502 10643695 10615885 10513933 10345493 10137974 9928759 
1036.070 9757461 9650968 9619868 9657405 9745974 9862422 9986665 10106061 
1039.928 10213751 10305759 10377933 10422527 10430332 10395376 10319839 
1043.303 10217585 10113352 10038068 10016672 10062246 10168467 10311832 
1046.678 10456331 10567300 10622982 10620163 10575108 10515393 10470179 
1050.054 10458808 10484401 10534980 10591880 10636869 10661284 10668245 
1053.429 10670215 10680097 10705906 10744080 10781714 10800668 10783990 
1056.804 10722989 10620028 10487049 10340096 10196451 10068011 9960017 
1060.179 9870285 9791824 9714156 9625932 9517304 9382834 9222819 9044626 
1064.037 8861738 8691909 8550969 8449838 8391226 8369472 8373930 8393759 
1067.894 8423386 8462880 8518394 8598552 8710872 8857884 9037284 9240892 
1071.752 9457361 9671601 9867167 10029523 10146759 10215447 10241874 
1075.127 10242417 10238990 10253137 10297718 10371044 10456670 10527580 
1078.502 10559356 10536134 10459454 10347256 10228575 10130784 10071232 
1081.877 10051733 10060211 10077811 10086458 10077065 10050580 10016909 
1085.253 9988089 9975951 9987242 10022877 10078421 10144453 10206729 
1088.628 10246996 10247743 10195162 10085747 9929505 9750243 9579084 9443681 
1092.485 9359778 9324162 9317290 9311366 9284556 9229519 9156554 9087120 
1096.343 9043205 9035322 9055959 9081909 9083534 9038604 8937563 8788260 
1100.200 8608590 8419467 8235086 8061114 7897399 7745418 7612474 7512640 
1104.057 7462311 7473098 7544803 7665215 7812108 7961616 8096220 8207397 
1107.915 8296313 8370113 8436088 8497478 8553504 8601019 8637386 8663109 
1111.772 8681023 8695728 8711752 8732374 8760570 8800838 8859236 8942637 
1115.630 9056568 9202207 9374335 9562080 9750955 9925133 10070350 10175692 
1119.487 10232477 10234953 10180745 10072418 9918793 9736994 9550394 9381142 
1123.345 9246645 9152054 9089116 9039957 8984783 8911486 8820010 8723381 
1127.202 8643403 8602540 8614843 8682376 8794008 8931441 9072673 9198450 
1131.059 9297115 9363603 9399221 9411377 9411004 9411140 9424853 9462779 
1134.917 9528683 9618445 9720357 9819140 9901166 9960288 10000566 10036373 
1138.774 10086289 10166771 10287777 10448762 10639687 10844829 11047722 
1142.150 11232825 11387597 11502682 11570258 11585843 11550182 11472980 
1145.525 11373242 11277098 11213172 11201408 11248535 11343482 11462061 
1148.900 11572300 11645842 11667420 11637061 11569816 11487747 11414060 
1152.275 11364706 11346067 11356032 11388277 11435593 11493258 11559301 
1155.651 11632705 11710512 11787245 11854081 11902402 11926616 11926991 
1159.026 11910371 11888406 11874853 11879552 11906931 11953351 12008836 
1162.401 12060104 12094206 12103303 12084701 12041776 11981688 11913470 
1165.776 11845194 11782274 11727499 11680661 11638048 11592955 11536298 
1169.151 11457467 11347155 11201714 11024611 10828455 10632421 10458843 
1172.527 10324556 10237158 10191091 10170468 10153068 10118643 10055735 
1175.902 9963373 9850898 9733437 9627660 9546465 9497153 9481405 9496272 
1179.759 9534848 9587280 9642567 9688744 9716088 9720086 9702433 9671702 
1183.617 9640669 9622680 9625696 9650595 9689354 9729506 9757597 9763866 
1187.474 9744653 9702331 9642464 9571056 9493495 9414391 9338991 9274638 
1191.332 9229587 9211074 9221599 9255818 9301312 9340819 9359405 9347522 
1195.189 9305849 9243972 9176927 9117843 9073824 9043205 9016343 8980250 
1199.047 8923594 8841685 8739405 8629781 8531032 8463015 8441663 8474604 
1202.904 8559080 8682477 8823629 8956301 9058294 9113850 9118520 9080049 
1206.761 9015904 8948657 8898837 8881657 8903639 8963675 9055148 9169279 
1210.619 9297386 9431084 9563332 9686576 9792841 9874150 9924895 9942727 
1214.476 9929980 9894996 9849068 9805279 9776811 9774202 9803110 9864761 
1218.334 9954118 10060923 10171350 10271457 10349938 10401553 10428126 
1221.709 10440005 10451138 10476560 10528496 10612388 10726793 10864023 
1225.084 11012887 11160236 11294543 11406645 11490978 11546064 11573899 
1228.459 11580194 11573116 11560492 11548582 11539191 11529664 11513604 
1231.835 11484991 11440083 11379569 11307806 11231363 11154355 11076952 
1235.210 10995792 10906322 10806681 10701050 10599214 10514680 10458910 
1238.585 10436034 10441974 10463628 10485623 10493159 10477918 10439598 
1241.960 10384075 10319975 10256326 10199944 10154899 10124137 10109621 
1245.336 10113216 10134278 10170027 10214260 10259176 10296801 10323301 
1248.711 10338570 10346781 10353297 10361814 10371791 10378408 10374947 
1252.086 10356724 10323776 10282381 10242993 10216872 10210427 10222537 
1255.461 10243129 10257174 10248658 10207000 10132615 10038102 9947066 
1258.837 9886759 9882590 9948083 10079914 10256597 10445572 10612286 
1262.212 10729849 10787692 10792278 10763474 10724347 10694563 10681896 
1265.587 10681931 10681931 10669468 10639076 10596430 10556503 10536916 
1268.962 10551547 10603594 10683458 10772509 10850978 10902992 10923073 
1272.338 10916142 10894431 10871056 10854851 10849687 10854205 10865076 
1275.713 10880060 10899799 10926403 10962353 11007482 11058259 11108020 
1279.088 11149188 11175671 11185395 11180023 11164757 11146706 11132360 
1282.463 11126785 11133175 11152349 11183592 11224801 11272848 11323825 
1285.839 11374467 11422360 11466449 11508603 11552700 11603880 11667829 
1289.214 11748911 11848361 11963944 12089232 12215103 12330612 12425423 
1292.589 12493278 12532565 12548559 12551254 12555210 12573560 12616776 
1295.964 12689574 12790229 12912002 13045213 13180583 13309503 13425544 
1299.339 13524079 13600552 13651563 13674849 13670916 13643425 13599799 
1302.715 13549614 13502067 13464778 13441605 13433370 13438393 13454763 
1306.090 13480397 13513688 13552930 13595320 13636279 13670711 13693929 
1309.465 13702136 13694544 13672216 13637408 13592893 13540624 13481456 
1312.840 13416043 13344387 13266593 13183110 13094452 13001306 12905824 
1316.216 12811387 12722600 12645225 12583280 12537953 12505214 12477490 
1319.591 12445403 12401454 12343532 12275666 12207606 12150459 12115024 
1322.966 12107630 12129198 12174891 12236710 12305354 12372100 12431866 
1326.341 12482127 12523322 12558962 12594501 12637959 12697899 12783234 
1329.717 12900704 13052623 13235508 13440819 13656145 13867813 14065519 
1333.092 14243832 14403071 14547945 14685566 14822991 14965774 15117971 
1336.467 15282989 15464103 15664391 15884431 16120089 16359007 16582739 
1339.842 16770387 16906958 16989232 17026170 17034302 17031302 17033336 
1343.218 17051428 17090818 17152478 17234488 17334444 17450806 17584382 
1346.593 17736256 17906866 18093430 18289092 18483566 18665986 18827548 
1349.968 18964386 19079248 19180182 19278164 19384270 19507146 19651060 
1353.343 19815348 19995658 20186350 20383028 20584730 20795598 21024062 
1356.719 21280968 21576366 21917544 22309216 22754416 23258482 23834428 
1360.094 24507292 25315138 26300784 27500244 28916138 30500492 32152548 
1363.469 33750536 35190972 36408032 37376376 38091112 38552400 38764932 
1366.844 38743920 38530820 38195952 37844096 37587176 37514704 37686580 
1370.220 38126092 38839024 39835652 41146276 42822112 44916520 47446152 
1373.595 50338456 53404080 56379440 58994584 61066892 62519728 63334876 
1376.970 63510068 63031620 61884316 60087504 57727032 54959452 51963748 
1380.345 48913092 45933688 43096384 40443840 38003116 35793732 33827460 
1383.721 32095286 30564548 29180594 27882322 26614552 25346152 24085334 
1387.096 22873322 21764688 20800014 19990210 19321774 18771358 18315672 
1390.471 17934212 17609260 17321134 17048086 16768081 16463958 16129134 
1393.846 15772302 15416311 15086820 14800877 14557470 14342588 14138971 
1397.222 13936990 13736880 13546947 13378181 13237455 13124947 13035414 
1400.597 12963138 12906165 12865002 12841043 12832682 12833194 12832000 
1403.972 12818485 12786919 12740308 12688039 12641131 12605724 12582223 
1407.347 12568239 12562884 12569159 12593069 12639596 12707827 12787363 
1410.723 12862067 12914869 12937194 12932722 12915961 12904527 12910466 
1414.098 12937228 12979217 13028346 13080076 13139325 13221058 13345446 
1417.473 13526472 13759828 14014869 14246914 14422630 14543593 14637996 
1420.848 14741915 14879597 15060063 15282645 15542188 15833225 16153172 
1424.224 16501093 16875094 17270172 17679690 18099474 18532112 18989586 
1427.599 19491376 20059120 20708812 21442184 22245878 23098582 23983358 
1430.974 24894044 25833930 26805990 27806050 28819040 29827548 30822718 
1434.349 31809550 32818388 33900000 35108988 36458444 37894096 39313364 
1437.724 40626484 41804164 42872904 43884640 44895388 45949048 47071216 
1441.100 48266196 49522624 50820240 52136952 53457332 54771700 56074108 
1444.475 57363424 58642276 59923084 61230032 62597908 64060300 65633140 
1447.850 67304696 69035808 70786200 72541416 74320424 76169080 78135632 
1451.225 80246776 82486248 84793560 87090280 89297232 91374040 93324384 
1454.601 95180344 96982992 98750696 100445352 101949544 103126000 103923536 
1457.976 104408200 104703360 104888720 104991240 105016816 104974368 
1460.869 104880160 104751384 104591752 104378664 104054168 103532848 
1463.762 102715792 101530736 99969176 98073872 95894976 93447632 90699712 
1467.137 87618720 84208072 80529984 76673216 72739168 68795632 64823216 
1470.513 60733324 56391404 51716404 46811772 42036656 37856536 34552848 
1473.888 32100386 30267098 28783386 27468758 26239396 25091990 24056022 
1477.263 23153552 22375564 21687706 21047920 20424286 19802862 19187732 
1480.638 18592526 18031012 17508896 17023136 16567178 16138144 15739558 
1484.014 15378480 15060235 14782743 14535233 14301494 14066375 13821325 
1487.389 13567561 13309982 13048082 12771496 12461941 12109640 11730460 
1490.764 11360385 11037356 10781272 10591744 10452088 10340742 10237158 
1494.139 10128546 10011010 9890216 9775523 9673024 9576340 9469653 9337907 
1497.997 9181055 9016242 8871444 8769562 8719494 8713340 8731258 8751137 
1501.854 8757087 8745389 8721927 8698974 8688021 8697486 8726863 8764660 
1505.712 8784676 8755634 8663345 8535864 8420075 8338734 8283580 8238869 
1509.569 8195410 8153375 8118871 8099696 8100507 8119480 8149222 8180419 
1513.426 8205000 8218642 8220769 8211720 8190042 8151788 8090920 8004645 
1517.284 7897028 7778037 7657222 7540960 7431267 7327735 7229854 7139977 
1521.141 7063085 7002739 6955196 6911025 6859251 6793716 6713453 6622910 
1524.999 6530233 6444705 6373517 6316293 6266203 6213900 6154513 6089623 
1528.856 6026288 5972637 5933839 5910225 5896287 5883188 5861928 5826331 
1532.714 5777909 5726236 5684572 5659664 5648116 5640530 5629755 5613241 
1536.571 5593102 5575180 5566487 5573703 5599782 5639758 5678698 5701929 
1540.428 5706528 5703574 5704816 5712806 5720998 5722576 5713679 5696054 
1544.286 5675609 5658053 5644290 5630695 5611428 5582463 5544371 5502491 
1548.143 5465647 5445213 5448434 5473968 5509873 5539169 5548801 5534471 
1552.001 5499840 5452997 5403241 5357416 5319109 5288453 5263868 5244920 
1555.858 5233484 5232176 5243344 5266753 5297575 5329105 5365199 5426357 
1559.715 5530477 5669164 5824215 5978415 6119529 6237799 6327791 6387976 
1563.573 6421636 6437744 6448942 6468011 6502080 6551256 6609688 6669946 
1567.430 6723279 6760465 6773961 6758917 6718635 6666783 6622775 6600134 
1571.288 6604272 6632263 6677314 6731053 6784831 6830269 6859722 6867969 
1575.145 6854740 6828552 6805362 6801323 6824681 6871470 6932706 6998598 
1579.003 7061233 7113031 7147219 7159278 7147960 7116938 7074771 7032608 
1582.860 6999877 6982200 6980987 6994523 7020687 7058976 7110775 7178142 
1586.717 7260816 7354154 7447581 7527643 7582093 7604145 7596221 7568910 
1590.575 7537049 7513045 7504313 7510887 7528249 7550366 7574608 7602864 
1594.432 7640968 7695298 7768085 7855763 7949264 8037216 8110398 8163773 
1598.290 8197267 8214015 8217696 8211213 8195275 8168669 8129607 8076944 
1602.147 8011969 7939310 7865953 7800031 7749736 7719278 7709328 7715804 
1606.005 7731589 7746970 7752974 7743226 7715770 7673916 7624343 7574574 
1609.862 7529598 7491065 7458064 7428941 7403022 7381790 7368679 7367668 
1613.719 7381992 7411448 7450918 7487795 7502426 7472187 7385530 7251652 
1617.577 7096461 6946072 6816839 6713117 6631960 6568311 6516913 6475410 
1621.434 6444503 6428496 6433944 6465993 6522833 6595021 6668735 6731995 
1625.292 6776485 6797251 6791764 6759321 6701238 6621429 6528248 6431320 
1629.149 6340870 6265733 6211245 6180357 6172694 6185533 6212657 6246169 
1633.006 6277195 6296559 6297467 6276658 6238001 6192860 6154984 6132131 
1636.864 6121983 6118051 6115934 6114186 6112910 6111162 6106457 6093722 
1640.721 6068891 6029916 5979825 5925609 5876438 5840704 5823174 5823577 
1644.579 5835767 5850779 5857966 5851820 5836674 5826129 5830764 5850745 
1648.436 5876639 5897664 5906699 5900015 5875934 5832073 5762799 5657817 
1652.294 5508295 5325885 5160650 5068486 5055814 5091953 5147741 5206421 
1656.151 5259743 5303948 5338363 5364092 5383851 5400457 5415655 5429444 
1660.008 5439811 5443569 5438805 5425921 5409381 5396297 5392472 5399249 
1663.866 5412300 5424713 5430618 5427095 5413139 5389923 5359362 5324308 
1667.723 5288251 5256155 5232947 5222484 5223792 5231237 5236636 5232981 
1671.581 5216683 5187677 5147406 5096579 5035199 4961829 4875704 4780652 
1675.438 4686492 4606249 4549826 4520027 4512863 4520898 4534625 4544100 
1679.296 4540987 4522070 4491335 4458930 4436166 4430476 4441154 4456117 
1683.153 4447916 4383581 4252733 4090014 3948954 3857114 3812120 3798649 
1687.010 3800955 3806872 3808978 3803295 3789190 3767364 3738722 3703732 
1690.868 3662931 3617790 3571618 3528357 3491748 3464693 3447693 3439110 
1694.725 3435737 3433733 3430861 3428323 3428123 3429826 3429225 3419306 
1698.583 3393191 3349681 3301534 3275327 3298396 3373790 3480391 3593000 
1702.440 3695378 3782037 3852601 3909401 3955073 3990050 4010817 4011218 
1706.297 3987074 3939626 3876370 3809212 3749751 3707575 3686723 3683949 
1710.155 3689764 3691501 3677834 3641145 3580171 3498261 3402475 3300967 
1714.012 3201118 3107967 3022476 2941673 2859450 2770440 2672314 2570343 
1717.870 2476194 2401856 2352948 2327497 2319835 2324932 2339756 2363142 
1721.727 2395625 2437974 2489790 2548912 2610442 2668646 2718624 2757602 
1725.585 2785246 2804154 2817828 2829400 2840873 2852779 2863419 2871424 
1729.442 2876127 2878929 2883632 2893805 2911384 2935702 2962456 2984909 
1733.299 2996953 2997920 2996986 3007529 3036490 3082872 3141974 3209496 
1737.157 3282137 3357929 3434368 3506712 3567242 3606831 3617690 3596741 
1741.014 3545527 3468768 3373155 3266112 3155258 3046734 2944475 2850211 
1744.872 2763871 2685383 2615342 2555311 2506653 2469030 2439873 2414550 
1748.729 2388129 2357778 2323333 2286891 2249986 2212152 2170825 2123342 
1752.587 2068240 2006920 1941781 1875520 1811033 1751180 1699252 1660169 
1756.444 1638384 1636454 1651953 1677265 1700949 1710030 1693198 1641876 
1760.301 1553747 1435483 1304888 1184698 1092842 1035180 1004957 990112 
1764.159 980880 974736 974770 988219 1021696 1076864 1147721 1220715 1279099 
1768.498 1311036 1314393 1295948 1266073 1234172 1204068 1173767 1136658 
1772.356 1087328 1028670 970120 923034 895873 892819 913504 954347 1008810 
1776.695 1069524 1129515 1183635 1229155 1265973 1294951 1317184 1334334 
1780.553 1346964 1354741 1356669 1351584 1339020 1320009 1297078 1274114 
1784.410 1255439 1242479 1232876 1221446 1201643 1168285 1121111 1063312 
1788.268 1002134 945779 902016 876550 872134 887075 915530 947805 972080 
1792.607 978256 962914 928645 882659 835316 798269 781838 793057 832328 
1796.947 892719 959494 1014157 1040262 1027143 973973 890627 796045 710942 
1801.286 650510 620613 617427 631496 651506 668131 674967 668463 648453 
1805.626 618257 584048 554122 537999 542179 568056 609862 656151 691427 
1809.966 701848 680111 628742 559895 488902 430259 391688 373382 370331 
1814.305 375471 382203 385785 384491 378688 371027 364760 363102 368109 
1818.645 380014 396231 412018 421769 420475 406413 382104 353982 330903 
1822.984 321386 330869 359553 401405 447341 489334 524596 554918 585342 
1827.324 619551 656915 692058 714526 713331 683098 627680 558667 490461 
1831.664 433277 391456 367744 363068 378323 413245 463759 520449 568919 
1836.003 594002 584015 536605 460210 373548 299071 254278 247316 276127 
1840.343 331599 402433 480211 560260 640986 721496 796277 854804 884618 
1844.682 877148 834918 769590 696605 627647 568090 516900 469133 419182 
1849.022 364428 306399 250598 203126 168088 146013 134213 128711 125761 
1853.362 123474 121983 121254 119994 114890 100971 74657 36912 -5699 -42343 
1858.183 -60531 -52249 -17295 34725 87084 119895 117177 72801 -7289 -105386 
1863.005 -199652 -266812 -289263 -259494 -181205 -68184 59214 177369 265915 
1867.345 309648 304641 259550 195170 136069 99910 92851 110482 142566 176806 
1872.167 203424 216684 215822 205479 195402 197092 219701 267308 335014 
1876.506 409597 471521 500877 484325 418717 313130 187048 66935 -24949 
1880.846 -73551 -76035 -40123 19914 88178 152741 206938 250167 287300 326426 
1885.668 376035 443095 531530 639427 756545 862539 930306 929243 839864 
1890.007 663319 426014 171767 -53011 -208230 -273004 -246116 -146659 -7720 
1894.347 127419 217977 240221 191159 89073 -36843 -154344 -238499 -273832 
1898.686 -256050 -190213 -89187 28562 145051 242343 305503 325763 299900 
1903.026 231801 131992 16004 -100119 -200977 -274528 -314593 -320354 -297574 
1907.366 -255719 -206475 -160206 -124135 -100782 -88988 -86073 -88988 -97469 
1911.705 -113005 -137650 -172627 -216775 -265521 -313202 -354124 -383622 
1915.563 -399280 -398916 -378755 -333333 -256547 -145864 -5964 150554 308090 
1919.902 450923 567028 650012 698131 714227 705532 678850 637668 579171 
1924.242 494044 373083 211977 17230 -191571 -382066 -516583 -562847 -501392 
1928.581 -335286 -89717 189236 448933 646063 756678 785124 760794 728797 
1932.921 730191 792692 917522 1080385 1240220 1354143 1391537 1340017 
1936.778 1206992 1012762 784892 545463 308554 81749 -130329 -317606 -463264 
1941.118 -548187 -558115 -495137 -381172 -252408 -142254 -69509 -32304 
1944.975 -11397 17826 76049 167922 279542 383364 449861 455832 397657 294296 
1949.797 183535 111079 119133 233624 455699 757375 1084072 1372823 1559799 
1954.137 1599106 1475976 1205962 830038 405020 -9774 -371671 -654831 -852430 
1958.476 -966801 -1000224 -951560 -819955 -611157 -345814 -60531 198551 
1962.334 388537 480576 468171 363732 194175 -12623 -241347 -489213 -761051 
1966.673 -1057443 -1364335 -1646024 -1861187 -1971565 -1957382 -1819450 
1970.049 -1574158 -1242933 -851273 -425630 6494 406745 729395 927018 954314 
1974.388 793091 464024 41452 -362269 -622076 -638917 -377365 128247 777490 
1978.728 1447816 2019569 2416316 2623675 2675848 2630343 2542380 2448236 
1982.585 2353947 2242759 2087416 1865471 1570307 1213405 818751 421172 53680 
1986.925 -261050 -510957 -698764 -837086 -941741 -1027297 -1104079 -1180021 
1990.782 -1262524 -1358951 -1475467 -1614334 -1769525 -1923208 -2051511 
1994.158 -2123496 -2112648 -2001448 -1787575 -1485539 -1129130 -766773 
1997.533 -449727 -227306 -127646 -148713 -255984 -388488 -476603 -453798 
2001.390 -281150 43341 477491 952288 1383293 1691868 1828635 1774269 1545301 
2005.730 1185628 762520 345990 -1921 -235817 -337438 -311149 -187928 -16467 
2010.069 146013 247780 261506 190960 69587 -54303 -129601 -130594 -66561 
2014.409 19516 66571 16733 -160869 -458465 -826999 -1190000 -1474873 
2018.266 -1629882 -1639092 -1519846 -1311979 -1063888 -828488 -659065 
2021.642 -596069 -664226 -858217 -1139243 -1432966 -1641634 -1673453 
2025.017 -1464603 -1008786 -358627 381341 1095798 1686379 2088448 2287124 
2028.874 2307277 2195168 1995669 1740501 1445456 1119417 778684 451089 
2032.732 174916 -15804 -108301 -117046 -81535 -48770 -57053 -121849 -230121 
2037.071 -343927 -417023 -411760 -302706 -88558 212838 567459 934456 1273217 
2041.411 1552384 1755538 1879713 1935391 1938453 1907867 1860779 1804812 
2045.268 1738938 1654016 1535093 1366873 1142007 863104 546724 220563 -82297 
2049.608 -328267 -493218 -562748 -536506 -426821 -257176 -54137 157249 
2053.465 357597 538928 700454 844379 971117 1075403 1146226 1174697 1157853 
2057.805 1105531 1039697 991341 985695 1035313 1131708 1247563 1345535 
2061.662 1390407 1362652 1263913 1116925 955476 817456 730457 705897 739352 
2066.002 813473 904838 989049 1047403 1067929 1048897 998182 932597 876517 
2070.342 850886 870009 932364 1017976 1092211 1118719 1067697 929044 716352 
2074.681 464655 218673 16235 -120823 -193327 -220086 -230121 -246513 -278799 
2079.021 -318798 -344821 -329856 -253865 -110819 88012 316545 546160 750736 
2083.360 916160 1043218 1141375 1222243 1292392 1349058 1381897 1378274 
2087.218 1330046 1239223 1120380 994263 879870 787780 713995 640920 544368 
2091.557 405086 215524 -13253 -256315 -479052 -646460 -735151 -733961 
2095.415 -646096 -484480 -269395 -23358 230011 464787 659204 796012 867619 
2099.754 878874 845508 791331 739949 711041 715887 757673 834918 944783 
2104.094 1085468 1250355 1428701 1599605 1733748 1802582 1784549 1673740 
2107.951 1484021 1245869 995226 761557 562284 398089 261174 143792 46555 
2112.291 -18885 -34424 13021 125231 285875 466446 632392 755815 821639 
2116.631 830635 792825 721595 627481 514047 381275 230309 67532 -94421 
2120.970 -238896 -352370 -427152 -464092 -470149 -455089 -426656 -388885 
2124.828 -343364 -290852 -234724 -180443 -133178 -95978 -65898 -35186 6030 
2129.167 65378 144488 235879 326890 401903 446744 454206 423062 359255 
2133.507 273375 180220 96596 40756 30716 77308 182938 334948 508507 670321 
2138.329 784029 820909 766204 620845 401173 135705 -142353 -402656 -614863 
2142.668 -756850 -814697 -784501 -675475 -509236 -316215 -129567 20444 
2146.526 112769 139682 106340 30119 -67190 -158815 -217602 -219556 -144837 
2150.865 18621 267474 582555 931767 1270957 1557205 1757435 1853125 1846071 
2155.205 1755705 1613872 1456094 1315689 1218821 1182239 1210514 1292060 
2159.062 1403703 1509988 1575362 1576559 1506963 1377576 1214967 1048000 
2162.920 895475 760794 631762 489665 323376 140245 -33497 -156894 -193691 
2167.259 -128938 24453 228917 433775 592874 682500 706495 696771 694381 
2171.599 739783 854605 1035412 1256103 1478004 1661998 1779492 1820949 
2175.456 1792934 1713822 1604693 1482858 1356902 1227759 1090350 940533 
2179.314 779747 618091 475767 376632 341613 381142 486448 632956 788145 
2183.653 919946 1006651 1043915 1041823 1017876 987688 957867 922602 869279 
2187.993 785190 665343 519852 371226 245559 168386 154001 203291 305702 
2192.333 444190 599808 757607 905602 1035612 1139017 1205597 1222443 1178983 
2196.672 1069424 899592 688839 467142 273475 145781 112272 185291 357663 
2201.012 603624 885149 1166325 1417698 1623583 1781355 1893590 1961385 
2204.869 1978493 1930498 1801318 1583775 1287208 941363 592675 293070 81384 
2209.209 -25048 -36180 19350 103788 185623 248742 292572 326360 361709 
2213.548 404456 452150 498058 536572 567061 596656 633487 681737 735635 
2217.888 779282 790966 752031 654724 507014 332925 162950 28197 -46550 
2222.228 -49631 19549 153934 340386 562848 804111 1045144 1263846 1438508 
2226.567 1549890 1582811 1533962 1410750 1232777 1026412 822568 650045 
2230.425 528809 467640 461371 492020 533056 558203 549411 500280 419182 
2234.764 324934 238730 176607 143527 133484 133815 132987 126093 117807 
2239.104 119265 140975 186352 248543 312334 361344 385022 385951 379484 
2243.443 387609 428435 510730 627017 756877 873562 954812 989016 977659 
2247.783 931036 863735 786850 704371 615469 517995 412316 305669 209888 
2252.123 138190 100772 101667 137561 200275 280371 368872 458751 544136 
2256.462 617294 668430 686483 662191 593006 485751 358127 233724 139350 
2260.802 98253 124270 221060 380081 585375 813904 1039631 1238193 1385221 
2265.141 1462910 1462378 1385421 1244905 1064209 871238 691029 543008 436428 
2269.481 370364 337933 330505 342376 371558 419381 485983 568156 657213 
2273.821 739518 801091 832760 832627 808726 774967 749940 749774 784128 
2278.160 854439 954413 1070421 1185595 1283652 1351550 1382928 1379770 
2282.018 1352381 1316586 1289667 1285679 1311302 1362353 1425144 1481295 
2285.875 1512216 1503871 1452138 1361954 1245802 1119251 998182 895143 
2289.732 818817 774303 763482 784626 832129 895707 961686 1014057 1040826 
2294.072 1035379 1001271 948967 895575 855966 838802 842753 857526 867021 
2298.412 856265 817456 753126 677157 609530 572602 584181 652302 773938 
2302.751 935618 1117124 1294220 1446819 1560431 1630335 1661133 1664094 
2306.609 1654182 1643938 1641377 1647563 1657574 1663262 1657076 1634991 
2310.466 1597077 1547861 1493763 1442564 1401775 1378773 1380833 1414440 
2314.323 1483822 1587866 1718745 1861078 1995535 2103764 2173189 2200363 
2318.181 2193103 2166662 2136827 2116682 2111622 2120179 2138858 2165264 
2322.038 2201562 2253150 2323433 2409319 2498221 2571076 2605675 2585242 
2325.896 2504187 2370838 2206158 2036979 1892359 1794431 1754008 1771009 
2329.753 1836721 1937521 2058518 2188041 2315938 2434975 2539813 2625609 
2333.611 2689517 2729426 2744998 2737962 2712488 2675581 2636043 2604742 
2337.468 2591709 2602642 2636810 2684749 2730694 2755135 2741497 2683216 
2341.325 2584842 2462232 2336857 2229770 2152577 2106594 2083354 2069837 
2345.183 2053891 2029622 1997366 1962583 1930432 1904805 1886868 1877217 
2349.040 1876652 1887933 1915621 1964813 2038877 2136694 2250586 2367540 
2352.898 2473995 2559544 2622576 2669613 2714622 2771741 2849478 2948211 
2356.755 3059313 3167507 3257499 3319230 3350282 3356426 3347878 3335223 
2360.613 3326208 3322034 3318829 3310549 3291852 3260170 3217675 3169142 
2364.470 3120148 3074496 3033721 2996085 2960655 2926661 2895239 2868789 
2368.327 2848377 2832202 2814559 2786080 2737429 2662579 2561344 2440173 
2372.185 2311641 2190040 2086284 2006820 1950534 1910430 1875687 1835656 
2376.042 1781588 1709664 1619992 1517104 1408290 1301199 1204168 1123569 
2379.900 1063013 1023356 1002699 996488 999079 1005522 1012430 1018806 
2383.757 1025648 1034914 1047735 1063312 1077961 1086032 1081581 1059692 
2387.615 1019437 964243 901584 840960 791896 760760 749044 752927 763416 
2391.954 769988 761988 732116 678983 606942 525425 447473 386846 354115 
2396.294 356038 392981 459513 544800 634914 715887 774867 803979 801024 
2400.633 770486 721794 667766 622106 594699 590717 609563 645665 690299 
2404.973 734971 773340 801887 820543 830702 834520 833590 828544 819481 
2409.313 806900 790833 771282 747749 718376 681505 635744 582057 524497 
2413.652 469663 425749 399614 394971 411388 444753 487741 532989 574294 
2417.992 607307 628908 637635 633122 615237 587631 556245 529241 516203 
2422.331 524795 557440 611189 676925 744098 801688 843184 866889 875753 
2426.671 874159 865494 850986 829673 800360 763648 723288 685686 658142 
2431.010 644869 646196 657280 670222 676494 670952 652933 626486 598846 
2435.350 577313 567691 572336 590352 618721 654127 692655 731386 767797 
2439.690 799398 824959 843383 855036 861377 863934 863369 858622 847201 
2444.029 824992 789506 740879 683031 624229 574858 543605 535743 549511 
2448.369 577811 608900 630833 635744 621907 594367 563445 541615 537966 
2452.708 556146 593006 639958 685023 716982 728997 719040 691096 652667 
2457.048 613512 582555 565867 566597 584048 614209 650643 686582 714725 
2461.388 729793 728864 711672 680277 638232 589556 538065 486746 438186 
2465.727 395734 363035 344565 343735 362704 400576 453643 515706 579635 
2470.067 639925 692655 736431 771448 798501 817589 828876 832627 830503 
2474.406 826685 826818 836777 860879 899758 949432 1002234 1048964 1080618 
2478.746 1090948 1077496 1040959 985197 914866 835250 751732 668927 591281 
2483.086 522937 467109 426379 401903 394043 401936 424024 457391 497958 
2487.425 540951 581162 614242 638597 655056 667633 681704 702346 732116 
2491.765 769590 809390 844745 868582 876218 867221 844579 814137 782734 
2496.104 757109 742074 740381 752496 775797 805672 835283 857559 866225 
2500.444 858024 833457 797804 758669 723653 699658 689536 693352 709017 
2504.784 734207 766469 804410 845906 887208 923200 948635 959062 954247 
2509.123 938109 918385 902846 896471 899526 907362 912242 907727 892055 
2513.463 868814 845740 830602 827382 833922 842022 839898 818353 773407 
2517.802 709382 636772 569881 522307 502337 512620 549046 604022 668098 
2522.142 732581 791597 841757 882393 915164 942691 967663 992370 1017644 
2526.482 1042719 1066169 1086763 1104368 1120978 1139581 1163667 1194499 
2530.339 1230417 1266073 1294153 1307613 1301764 1276042 1234504 1184266 
2534.197 1133402 1088690 1055009 1034649 1028139 1035545 1056470 1090417 
2538.054 1135861 1190346 1249524 1308112 1361123 1403304 1431327 1442996 
2541.911 1437245 1413808 1373521 1317749 1249457 1172471 1091281 1010968 
2545.769 936648 872798 823631 792925 783365 796045 829507 878874 937046 
2550.108 994761 1044214 1079887 1100814 1110248 1114334 1119217 1128419 
2553.966 1143136 1160544 1176957 1189682 1198453 1205696 1216130 1233873 
2557.823 1261121 1297377 1339120 1381565 1419958 1451108 1473815 1488776 
2561.681 1497886 1503305 1506896 1509423 1510687 1509955 1505467 1496190 
2565.538 1481894 1464339 1447384 1436547 1437810 1455163 1489374 1536157 
2569.396 1588664 1638084 1676999 1702745 1717315 1726330 1736742 1753343 
2573.253 1776265 1801518 1822180 1832062 1829001 1816191 1801085 1793566 
2577.110 1802017 1829134 1871827 1921479 1967043 1998198 2009083 1999929 
2580.968 1976962 1949635 1928701 1923010 1936822 1968973 2013877 2062913 
2584.825 2106594 2137126 2150912 2148748 2135828 2119846 2109657 2111954 
2588.683 2129868 2162900 2206957 2256315 2305278 2350383 2390628 2427978 
2592.540 2465464 2506120 2551412 2600109 2647511 2687383 2712189 2714923 
2596.397 2692117 2643944 2575676 2496488 2419015 2356213 2319002 2314439 
2600.255 2343987 2403088 2482092 2568677 2649711 2713689 2753034 2765372 
2604.112 2753434 2723625 2686183 2651044 2626776 2618342 2626509 2647444 
2607.970 2674748 2701353 2721124 2731660 2734028 2732361 2732627 2739996 
2611.827 2758169 2788114 2827999 2873892 2920990 2964124 2998053 3019106 
2615.685 3024045 3011866 2984208 2945609 2903045 2864386 2837104 2825498 
2619.542 2829767 2845175 2864887 2880763 2886967 2881997 2868922 2854347 
2623.399 2846643 2852980 2877394 2919489 2974666 3034922 3090848 3133164 
2627.257 3154757 3152254 3126389 3082705 3031018 2983140 2950413 2941606 
2631.114 2959654 3001590 3058846 3120782 3177019 3220779 3250823 3270452 
2634.972 3285576 3302069 3322936 3347544 3372554 3392824 3405413 3409421 
2638.829 3407284 3403209 3400872 3402742 3408386 3414764 3418170 3415599 
2642.687 3405981 3390553 3372654 3356092 3344305 3339163 3340833 3347844 
2646.544 3358363 3370183 3382205 3393993 3406015 3419874 3436839 3457913 
2650.401 3483364 3512491 3543791 3575594 3606631 3636267 3664902 3693707 
2654.259 3723182 3754029 3786048 3818036 3848823 3877406 3903115 3925482 
2658.116 3943839 3956979 3962931 3959788 3946447 3924011 3895760 3867510 
2661.974 3845781 3835986 3841870 3863766 3899203 3943872 3993528 4044226 
2665.831 4093057 4138181 4177387 4208099 4227605 4233394 4224426 4201642 
2669.688 4168388 4129349 4089779 4054527 4027036 4009780 4004530 4012388 
2673.546 4033558 4067303 4110885 4159690 4207966 4250190 4282748 4304699 
2677.403 4318688 4329464 4341947 4359216 4381707 4406743 4429572 4445405 
2681.261 4450326 4442627 4422744 4392217 4353828 4310054 4263741 4218203 
2685.118 4176517 4142061 4117240 4103058 4098008 4099412 4103158 4105232 
2688.976 4102924 4095031 4081919 4065029 4046065 4026802 4009011 3994030 
2692.833 3983563 3978815 3980721 3988713 4001219 4015064 4026802 4033156 
2696.690 4031986 4022655 4006570 3986138 3964704 3945310 3930565 3921738 
2700.548 3919263 3921972 3927890 3934978 3941766 3948219 3956110 3967947 
2704.405 3986505 4013392 4047236 4083926 4117374 4141525 4152799 4151227 
2708.263 4140723 4128714 4122492 4127877 4147112 4178859 4218906 4262102 
2712.120 4304766 4344022 4379264 4410526 4438007 4462076 4483200 4502819 
2715.978 4523644 4549190 4583043 4627011 4680262 4738946 4797504 4849736 
2719.835 4890850 4918832 4934113 4939408 4938469 4934783 4931331 4930494 
2723.692 4934080 4943530 4959818 4982340 5009691 5038316 5063961 5082867 
2727.550 5092087 5090746 5079984 5062586 5041065 5018070 4995244 4973224 
2731.407 4952512 4932873 4914207 4895642 4876107 4853791 4826886 4794421 
2735.265 4756231 4713823 4669511 4625505 4583277 4542996 4503488 4463549 
2739.122 4422810 4382276 4345260 4316144 4299345 4297471 4310020 4332944 
2742.979 4359584 4381372 4390510 4382209 4355401 4313936 4264712 4216966 
2746.837 4178759 4154906 4145439 4146075 4149220 4146878 4133564 4108243 
2750.694 4074728 4040213 4013191 4000684 4005533 4026468 4058841 4096235 
2754.552 4132494 4163805 4188628 4207564 4221951 4233694 4243966 4253469 
2758.409 4262537 4271371 4279803 4287533 4294192 4299011 4301989 4303829 
2762.267 4306507 4313065 4326050 4347502 4377992 4416015 4458796 4503254 
2766.124 4546913 4588200 4627413 4664822 4701765 4739147 4777905 4818878 
2769.981 4862971 4911225 4963739 5019947 5077839 5134933 5188951 5238380 
2773.839 5283455 5325918 5368016 5411125 5455480 5499537 5541451 5579979 
2777.696 5615758 5652010 5693066 5742989 5803563 5873616 5949122 6025314 
2781.554 6098359 6167418 6234908 6305938 6385017 6475410 6576418 6684380 
2785.411 6793245 6897290 6992436 7077836 7155270 7228000 7300036 7373667 
2789.269 7450210 7529328 7610147 7691554 7773010 7854650 7937115 8021352 
2793.126 8108541 8200003 8296516 8398860 8506973 8620520 8738594 8860250 
2796.983 8984715 9111854 9241805 9375080 9511952 9651815 9793960 9936320 
2800.841 10077302 10215481 10350481 10482908 10614459 10747137 10882676 
2804.216 11022062 11164724 11309370 11453929 11596052 11735294 11873048 
2807.591 12012549 12159762 12321170 12501838 12704722 12928898 13170166 
2810.967 13421750 13676729 13930079 14179913 14427048 14674358 14924964 
2814.342 15180588 15440790 15703656 15967336 16231345 16497375 16769389 
2817.717 17052426 17350858 17667196 18002140 18354934 18724274 19109924 
2821.092 19512170 19932030 20370146 20825978 21298090 21784686 22285846 
2824.468 22804418 23346092 23919110 24532570 25193666 25906834 26673494 
2827.843 27492866 28364506 29289646 30273244 31324242 32453686 33673688 
2831.218 34995588 36427884 37976828 39646480 41439792 43360720 45415280 
2834.593 47611868 49962392 52480580 55180132 58073976 61171780 64478336 
2837.969 67993312 71711984 75625032 79719288 83980664 88392008 92936056 
2841.344 97597424 102361584 107219552 112167056 117204808 122335632 
2844.237 127561584 132878304 138273264 143722528 149190128 154634032 
2847.130 160002096 165235888 170273296 175040416 179457360 183439968 
2850.023 186897568 189747440 191917600 193352768 194022912 193922912 
2852.916 193074160 191519488 189323376 186563952 183323520 179690992 
2855.809 175750464 171579520 167253232 162836992 158390512 153970240 
2858.702 149623024 145392560 141317184 137427664 133753464 130319328 
2861.595 127145808 124250312 121644448 119333176 117315016 115582424 
2864.488 114122128 112916624 111947216 111192168 110627968 110229376 
2867.381 109965984 109803064 109702592 109619344 109506976 109319248 
2870.274 109009104 108537440 107872304 106993048 105894952 104589096 
2873.167 103104744 101483016 99777768 98046960 96344328 94720160 93212384 
2876.543 91847840 90643120 89607264 88744016 88055856 87544864 87213952 
2879.918 87065416 87100560 87317368 87710320 88271392 88989952 89855520 
2883.293 90859504 91995528 93260024 94650976 96166168 97801736 99550688 
2886.668 101402328 103343560 105359472 107435528 109558704 111717800 
2889.562 113903664 116108936 118326776 120552064 122779976 125006960 
2892.455 127230856 129449264 131659328 133856848 136035776 138189648 
2895.348 140313232 142404080 144464176 146499600 148520224 150535856 
2898.241 152556448 154589808 156640896 158712960 160807936 162926912 
2901.134 165070144 167238368 169431904 171652816 173905616 176197344 
2904.027 178537424 180935264 183398672 185931344 188532928 191200320 
2906.920 193930320 196723232 199584448 202523504 205552864 208684736 
2909.813 211927408 215285104 218757888 222342992 226036112 229831392 
2912.706 233721632 237695280 241736656 245826336 249938864 254046768 
2915.599 258118272 262114592 265992464 269697984 273169216 276343840 
2918.492 279157152 281550688 283475488 284887360 285749760 286030304 
2921.385 285701664 284747488 283165440 280971840 278198816 274892800 
2924.278 271107136 266894224 262307104 257397360 252215744 246817712 
2927.171 241258560 235591136 229864896 224118864 218384320 212686224 
2930.064 207043664 201473376 195989424 190601104 185314432 180130768 
2932.958 175050544 170075760 165212000 160470240 155864864 151409888 
2935.851 147116880 142993904 139044576 135270992 131676480 128265512 
2938.744 125045744 122025704 119213304 116616976 114243712 112101216 
2941.637 110198752 108545952 107151576 106022672 105160656 104561280 
2944.530 104214664 104107264 104222664 104543992 105055512 105740016 
2947.423 106580400 107557032 108646536 109823752 111059288 112319672 
2950.316 113570776 114772608 115884192 116866520 117682072 118302976 
2953.209 118712456 118904600 118883472 118658152 118237888 117628896 
2956.102 116833864 115853088 114688984 113347976 111841584 110184744 
2958.995 108394616 106485592 104469008 102353032 100142144 97840128 95450632 
2962.370 92977136 90425296 87802216 85117232 82384664 79621248 76845848 
2965.746 74078248 71334768 68628304 65966988 63355924 60799868 58304920 
2969.121 55879244 53533408 51278400 49122148 47069628 45120384 43270040 
2972.496 41511020 39835580 38236984 36711236 35257484 33877000 32572064 
2975.871 31343934 30191576 29110858 28095066 27135642 26224824 25357534 
2979.247 24531448 23747242 23007318 22312878 21663360 21054284 20478814 
2982.622 19929568 19400278 18887622 18391678 17915048 17461224 17032818 
2985.997 16630348 16251914 15894225 15552697 15223103 14902126 14587554 
2989.372 14278380 13974627 13677721 13389150 13110604 12842340 12582939 
2992.748 12328499 12074004 11814210 11546064 11270637 10992802 10721222 
2996.123 10464918 10231391 10024098 9841476 9677868 9525398 9376604 9225458 
2999.980 9068917 8906413 8739169 8568846 8397610 8227522 8060978 7900099 
3003.838 7746970 7602999 7467907 7340844 7220185 7104914 6994961 6891937 
3007.695 6798126 6715674 6645452 6586375 6535379 6487551 6437542 6380074 
3011.552 6311049 6227614 6129375 6018460 5899309 5779151 5665941 5567024 
3015.410 5487122 5426659 5380932 5342053 5301064 5251661 5191499 5123970 
3019.267 5055848 4995714 4949328 4918630 4900602 4889175 4876609 4857141 
3023.125 4827791 4788559 4741760 4690477 4637326 4584349 4532784 4483200 
3026.982 4436400 4391849 4348239 4302926 4252499 4194349 4128212 4057403 
3030.840 3988646 3930698 3892016 3877306 3885998 3911206 3943237 3969987 
3034.697 3981222 3971492 3939726 3889943 3829334 3766595 3709146 3662263 
3038.554 3628715 3608034 3597510 3592599 3588790 3581440 3567843 3546997 
3042.412 3520240 3490178 3459917 3431963 3407751 3386746 3367378 3347477 
3046.269 3325340 3300299 3272756 3244714 3218376 3196145 3179923 3170744 
3050.127 3169209 3174750 3186265 3201319 3217174 3230426 3237537 3236435 
3053.984 3226487 3209563 3188968 3169075 3153122 3142241 3134332 3124687 
3057.842 3107900 3080102 3040160 2991848 2942507 2901577 2876827 2873292 
3061.699 2889936 2921624 2958653 2991681 3013101 3018739 3008964 2987244 
3065.556 2958820 2927929 2898141 2871257 2848310 2830167 2818161 2813225 
3069.414 2816193 2826232 2840573 2855281 2866054 2869256 2863619 2850445 
3073.271 2833302 2817227 2806455 2803421 2807323 2814659 2819195 2814659 
3077.129 2796884 2764605 2721191 2673681 2630676 2599408 2583509 2581742 
3080.986 2588275 2595075 2595375 2586609 2571510 2556511 2549845 2556644 
3084.844 2577409 2605942 2632443 2647344 2644710 2625909 2598775 2576643 
3088.701 2571510 2591375 2636876 2701786 2774675 2843141 2897374 2931932 
3092.558 2945943 2940839 2920223 2886900 2843241 2792516 2738296 2685583 
3096.416 2640210 2606442 2586509 2579309 2581609 2588342 2595309 2600175 
3100.273 2602575 2603409 2604142 2605175 2605908 2604575 2599742 2591109 
3104.131 2579742 2568310 2560011 2557544 2562577 2575343 2594775 2619042 
3107.988 2646044 2672947 2698019 2718624 2733094 2740930 2742631 2740563 
3111.845 2737962 2738763 2745831 2759770 2778743 2798218 2812392 2815527 
3115.703 2803754 2776776 2737396 2691151 2644977 2605609 2576643 2559677 
3119.560 2552545 2551612 2552378 2551712 2548079 2543080 2539147 2539747 
3123.418 2547012 2561177 2580309 2601008 2619509 2633009 2640610 2643277 
3127.275 2643444 2643544 2645310 2649177 2654711 2660979 2667180 2673647 
3131.133 2681515 2692117 2706787 2725125 2746031 2767506 2787480 2804421 
3134.990 2818695 2831334 2844475 2859750 2878495 2901076 2927429 2956818 
3138.847 2989212 3024245 3061616 3100091 3137102 3169276 3191872 3200718 
3142.705 3193207 3168909 3130694 3083573 3034655 2991247 2959520 2943908 
3146.562 2946143 2964791 2996085 3034455 3072861 3103962 3122184 3123151 
3150.420 3106198 3073562 3031318 2987177 2949479 2925694 2920490 2934767 
3154.277 2966326 3010632 3062317 3115843 3167841 3215572 3257633 3292654 
3158.135 3318529 3332852 3333620 3320432 3295224 3262974 3230894 3206893 
3161.992 3197313 3205491 3230793 3268683 3312753 3357227 3398067 3434401 
3165.849 3467967 3501468 3536675 3573422 3608368 3637035 3655012 3660291 
3169.707 3654109 3641045 3626844 3616821 3613480 3616153 3621031 3624038 
3173.564 3622334 3616220 3609604 3607934 3617356 3641345 3679572 3727593 
3177.422 3778360 3824019 3857983 3877205 3881250 3872893 3855576 3832544 
3181.279 3806705 3779330 3751455 3723917 3697851 3674693 3656549 3644820 
3185.136 3640510 3643551 3653308 3667776 3685019 3703231 3720341 3735547 
3188.994 3748648 3759443 3768467 3775620 3780834 3782973 3781703 3776255 
3192.851 3767398 3757037 3747779 3742766 3744704 3754764 3772378 3795006 
3196.709 3819306 3840767 3856111 3862362 3858785 3846182 3826928 3805067 
3200.566 3784744 3770573 3766963 3776088 3798716 3833011 3875768 3921704 
3204.424 3965339 4002390 4029009 4043791 4046902 4040681 4028040 4012857 
3208.281 3998879 3988345 3982426 3980085 3979383 3977577 3972862 3964536 
3212.138 3953702 3942367 3932303 3924246 3917592 3910437 3900976 3889274 
3215.996 3877606 3870486 3873260 3889842 3920634 3961895 4006202 4045330 
3219.853 4071985 4082722 4079143 4066233 4050781 4039042 4035296 4041417 
3223.711 4057236 4081551 4112691 4148183 4184145 4215928 4236839 4240921 
3227.568 4223757 4185483 4130855 4069076 4011218 3967813 3945611 3946246 
3231.426 3966643 3999581 4036199 4069076 4092656 4104898 4106871 4102289 
3235.283 4095466 4091686 4094763 4107005 4128747 4158218 4192509 4228408 
3239.140 4262671 4293957 4322335 4348071 4372135 4394158 4412835 4426057 
3242.998 4431446 4427028 4413371 4391949 4366311 4339972 4317048 4299714 
3246.855 4289474 4286429 4289909 4298944 4312129 4327924 4344892 4360789 
3250.713 4373708 4381205 4381707 4373574 4357074 4333881 4308615 4287265 
3254.570 4277126 4284287 4312630 4360756 4422911 4489762 4550027 4593792 
3258.427 4615692 4614721 4595801 4566535 4535864 4511188 4497060 4494449 
3262.285 4502450 4517650 4535797 4553041 4565095 4568611 4561244 4542628 
3266.142 4514871 4481895 4450025 4425321 4412367 4413371 4426995 4449456 
3270.000 4474362 4496089 4509347 4511657 4502852 4486247 4467131 4451699 
3273.857 4446476 4455816 4481392 4521701 4572294 4627447 4682439 4733988 
3277.715 4781222 4824641 4864781 4899764 4925199 4935722 4925567 4892057 
3281.572 4837976 4770904 4701497 4641110 4598178 4576379 4574303 4586994 
3285.429 4608961 4634580 4660535 4684851 4706287 4723102 4734122 4737807 
3289.287 4734524 4726786 4718580 4714527 4718446 4731610 4753752 4781959 
3293.144 4813149 4844476 4873861 4899429 4919468 4931801 4934381 4926372 
3297.002 4909415 4887198 4865652 4850473 4845883 4852953 4870343 4894536 
3300.859 4921848 4950199 4978821 5008752 5040998 5075928 5112672 5149619 
3304.717 5184591 5215543 5241063 5259307 5268296 5265612 5249850 5221043 
3308.574 5182312 5140131 5102278 5076297 5066810 5074721 5096177 5125311 
3312.431 5156023 5183686 5206522 5225369 5242002 5257966 5273729 5288620 
3316.289 5301533 5312065 5320350 5327226 5333533 5339168 5343260 5344904 
3320.146 5342992 5338564 5333465 5330413 5331554 5337759 5348091 5360100 
3324.004 5371103 5378751 5382173 5381335 5377276 5371338 5364964 5360200 
3327.861 5359295 5364494 5377343 5397974 5424177 5451789 5475646 5491484 
3331.719 5497625 5496215 5491819 5491081 5499336 5518866 5548130 5582496 
3335.576 5615087 5639725 5652346 5651641 5639288 5618309 5593035 5568064 
3339.433 5547425 5535142 5533196 5542123 5559339 5580416 5598909 5608609 
3343.291 5606159 5591861 5569944 5547593 5532894 5531753 5546351 5574710 
3347.148 5611428 5649090 5681148 5703137 5713814 5714989 5710490 5704816 
3351.006 5702097 5704648 5713243 5726471 5742217 5758031 5771865 5782644 
3354.863 5790669 5796008 5798795 5798996 5795067 5786035 5772134 5755312 
3358.720 5739732 5730869 5733958 5752155 5785397 5829521 5877378 5921310 
3362.578 5954128 5971730 5973712 5962693 5943546 5921914 5903038 5891383 
3366.435 5889066 5896220 5910629 5927658 5941128 5945192 5935753 5911703 
3370.293 5875967 5835532 5798291 5771563 5759609 5761859 5773611 5787546 
3374.150 5796545 5795470 5783180 5761758 5735771 5710557 5690179 5677254 
3378.008 5672353 5674938 5683969 5698001 5715526 5734797 5753834 5770555 
3381.865 5783349 5791340 5794665 5794329 5791642 5787814 5783751 5780125 
3385.722 5777875 5778177 5783248 5795336 5816122 5845909 5882550 5922049 
3389.580 5958730 5986981 6002367 6003174 5990038 5966926 5938675 5910494 
3393.437 5886345 5868142 5856354 5850342 5849201 5852089 5858134 5866060 
3397.295 5874523 5880703 5881945 5875967 5861861 5840200 5813335 5784054 
3401.152 5755110 5728217 5704279 5683062 5665539 5653387 5649795 5658691 
3405.010 5682390 5721065 5770858 5825021 5874758 5911502 5929942 5927759 
3408.867 5906968 5871937 5828514 5782207 5737080 5696457 5662752 5637577 
3412.724 5622102 5616329 5618746 5626130 5635294 5642678 5646807 5648049 
3416.582 5648150 5649057 5651574 5654360 5654629 5648788 5634522 5612637 
3420.439 5587128 5564407 5550210 5549304 5561923 5585551 5615590 5647680 
3424.297 5678564 5706629 5731574 5753498 5771260 5782778 5785329 5776901 
3428.154 5757427 5729324 5696658 5664196 5636737 5616765 5605454 5601628 
3432.011 5604011 5610422 5619451 5629420 5638650 5644995 5645599 5638147 
3435.869 5621028 5594109 5559104 5519571 5479236 5442261 5410924 5386367 
3439.726 5367212 5351546 5336350 5319210 5298883 5275439 5251258 5229627 
3443.584 5214537 5209574 5217052 5236670 5266485 5301433 5334472 5358926 
3447.441 5369895 5364796 5345374 5316225 5283120 5252298 5228487 5213732 
3451.299 5207830 5207327 5207025 5200821 5184156 5154581 5113845 5066575 
3455.156 5020282 4982944 4960522 4955394 4966085 4987401 5011601 5031244 
3459.013 5041065 5038383 5023299 4997993 4965314 4927377 4885589 4840824 
3462.871 4794287 4747789 4705182 4669980 4645732 4634815 4637192 4650756 
3466.728 4671520 4695200 4716972 4733285 4741793 4740888 4730270 4710809 
3470.586 4685420 4658090 4634245 4619677 4617836 4629724 4652296 4679659 
3474.443 4704277 4719987 4723839 4716369 4702133 4686626 4674300 4666999 
3478.301 4663549 4660301 4653067 4638599 4616262 4588233 4559135 4534357 
3482.158 4517818 4511892 4515708 4525518 4535797 4539681 4530172 4502048 
3486.015 4452234 4382577 4299212 4212114 4133832 4074695 4041550 4036199 
3489.873 4054761 4090147 4134166 4179060 4218806 4249019 4266853 4270534 
3493.730 4259425 4234765 4200271 4161697 4126239 4100583 4087739 4086936 
3497.588 4093157 4099211 4097940 4084562 4058206 4020983 3976407 3928425 
3501.445 3879980 3832510 3787552 3747311 3715495 3696781 3695110 3710282 
3505.302 3739424 3775753 3811050 3836822 3847620 3840733 3818170 3784544 
3509.160 3746643 3710917 3681176 3658387 3640276 3623403 3603022 3575928 
3513.017 3540116 3496391 3447627 3399336 3358196 3329747 3317160 3320098 
3516.875 3334155 3352152 3365675 3368881 3359498 3339631 3315123 3293121 
3520.732 3279266 3276762 3284574 3298630 3312619 3320632 3319964 3311617 
3524.590 3299565 3289549 3286410 3292654 3307411 3326375 3343203 3351083 
3528.447 3344405 3320832 3280968 3227555 3164336 3095619 3025479 2957652 
3532.304 2896373 2844742 2806322 2783479 2776276 2782978 2798952 2818395 
3536.162 2835270 2845976 2848811 2844742 2835403 2821463 2802120 2776276 
3540.019 2742864 2703620 2662846 2627342 2604575 2599075 2611809 2638310 
3543.877 2670347 2698519 2716423 2722858 2722458 2721891 2726792 2737862 
3547.734 2751100 2760136 2758769 2744698 2718323 2683916 2645677 2608142 
3551.592 2573143 2540313 2507786 2473595 2437740 2401889 2368572 2340489 
3555.449 2319302 2305078 2296984 2293686 2293586 2295552 2298549 2301581 
3559.306 2304345 2305878 2306377 2306277 2306044 2305445 2303879 2299349 
3563.164 2290022 2274967 2255016 2233567 2215782 2207290 2210887 2224208 
3567.021 2238429 2243159 2232268 2206457 2172057 2136893 2107526 2087549 
3570.879 2077628 2076163 2081357 2090879 2103631 2119346 2137326 2156606 
3574.736 2174355 2187542 2193037 2189573 2176985 2156539 2129002 2093908 
3578.594 2049596 1993904 1925672 1846803 1762092 1679328 1605990 1548726 
3582.451 1510354 1490338 1485584 1492167 1506996 1528542 1556374 1589828 
3586.308 1625113 1654880 1668684 1659570 1627641 1581580 1533862 1494860 
3590.166 1471953 1467065 1478403 1500645 1527212 1551186 1567813 1575628 
3594.023 1576792 1576426 1578488 1585471 1596379 1607952 1616134 1618362 
3597.881 1613473 1601733 1584141 1561395 1533363 1499581 1460283 1417066 
3601.738 1373454 1333536 1300634 1276175 1258895 1245835 1233807 1220881 
3605.595 1208155 1200314 1204102 1225201 1264644 1315024 1363416 1394728 
3609.453 1399980 1378540 1337857 1288869 1243244 1210248 1194134 1193270 
3613.310 1201244 1210547 1214701 1211378 1201643 1187888 1173003 1159681 
3617.168 1151442 1152604 1167521 1198320 1242014 1288637 1324729 1338588 
3621.025 1323831 1280694 1215166 1136160 1052617 972578 901983 844147 800958 
3625.365 773506 763449 773606 806900 864863 941031 1017345 1068361 1075303 
3629.704 1040693 984002 926022 878774 846106 825523 810883 795116 772676 
3634.044 741708 704669 666770 633189 607672 591713 585077 587101 597054 
3638.384 614474 638896 668297 699127 726142 743102 744563 728333 696671 
3642.723 656185 615967 585044 570578 575920 600804 640854 687346 727337 
3647.063 746820 735701 693352 630799 567890 522705 503763 506948 520847 
3651.402 536240 548150 556843 565137 575555 588229 600406 605051 593670 
3655.742 559331 502635 432979 364826 310974 277155 263528 265451 276392 
3660.082 289721 300464 306067 306399 302818 296717 289356 281564 272944 
3664.421 264589 256698 250167 245261 241415 237602 232762 226729 221424 
3668.761 219402 224176 235613 248510 254676 248145 227922 197490 163746 
3673.100 135473 123375 138721 187347 259881 330405 368407 360913 315948 
3677.440 249836 177966 111775 59811 26474 12094 13021 22531 33731 40889 
3682.262 41121 34858 25182 16235 12359 15772 25580 38006 47317 47284 33996 
3687.566 8581 -20774 -40322 -38367 -12524 27270 64682 84400 78766 50366 8880 
3692.870 -33497 -65997 -81733 -79116 -60995 -34126 -6063 15440 25248 21835 
3697.691 5500 -21635 -57583 -100218 -147023 -193691 -233995 -260686 -267905 
3702.031 -255057 -226842 -192300 -160670 -138146 -127348 -127381 -133973 
3705.888 -141359 -144109 -137318 -118371 -86968 -45656 463 44865 79694 98154 
3710.710 96198 75883 43937 9874 -17693 -35153 -43005 -44662 -43966 -44364 
3715.532 -47412 -53176 -60100 -66263 -69774 -70470 -69509 -70205 -75572 
3719.872 -87730 -106413 -129302 -152025 -170076 -180244 -181834 -176833 
3723.729 -168222 -158550 -149541 -141359 -133874 -127481 -122876 -121485 
3727.586 -124632 -132515 -144572 -159776 -176502 -193327 -208230 -218695 
3731.444 -221179 -211476 -185146 -138478 -70702 15407 111079 201435 268070 
3735.783 296949 285576 244100 186651 124635 65080 10106 -40024 -86073 
3740.123 -128640 -168851 -208230 -249692 -297110 -354389 -422617 -494707 
3743.980 -553515 -576911 -553052 -488617 -401994 -309858 -222206 -144937 
3747.838 -81435 -33132 -1491 14943 18389 12988 2186 -12126 -29919 -51288 
3752.660 -75837 -103332 -132814 -164611 -198957 -236777 -278336 -323102 
3756.517 -369453 -414242 -453897 -484414 -502452 -506125 -495137 -471274 
3760.375 -438175 -400372 -361772 -325420 -292739 -264792 -242473 -227008 
3764.232 -220219 -223530 -236280 -256348 -279064 -299296 -313401 -320089 
3768.089 -320453 -318235 -319427 -329459 -351012 -381801 -415368 -444663 
3771.947 -463695 -470347 -465085 -450587 -430793 -409840 -390640 -374518 
3775.804 -361573 -350350 -339093 -325850 -308865 -287243 -260322 -228498 
3779.662 -193492 -158252 -125493 -98728 -80541 -73352 -79448 -100881 -137782 
3784.001 -188193 -247507 -308202 -362368 -404345 -430595 -440459 -436255 
3787.859 -421624 -400339 -376438 -352336 -329161 -306779 -284395 -260587 
3791.716 -235452 -209456 -183556 -159544 -139140 -124499 -118802 -125129 
3795.573 -146295 -182563 -229558 -279230 -321678 -349224 -357236 -344854 
3799.431 -314593 -273104 -231412 -201408 -191969 -201673 -219523 -233068 
3803.288 -235585 -226080 -207303 -183225 -158384 -137087 -122512 -117212 
3807.146 -122280 -136954 -159941 -189750 -223431 -256878 -285057 -301878 
3811.003 -301944 -282806 -245685 -195744 -139902 -85775 -40885 -10602 1855 
3815.343 -3379 -21536 -44198 -64076 -76400 -79580 -73551 -58543 -35186 -5897 
3820.165 22399 39099 33201 927 -51189 -111978 -170904 -221742 -260421 
3824.504 -284859 -294031 -288435 -270355 -243665 -213827 -185444 -161862 
3828.362 -145102 -135265 -132151 -135298 -143016 -152588 -159842 -160272 
3832.219 -150203 -128938 -97999 -61856 -26340 3412 21935 25712 13021 -15672 
3837.041 -58742 -112541 -172527 -233167 -289163 -335187 -368923 -389415 
3840.898 -397823 -396863 -389448 -378490 -366341 -354588 -344291 -336345 
3844.756 -331114 -329492 -332108 -339093 -349688 -362401 -374981 -384549 
3848.613 -388852 -385475 -373624 -352072 -319427 -273203 -210283 -130097 
3852.470 -40885 35322 70150 47947 -22000 -117510 -215980 -302441 -366341 
3856.810 -402193 -408615 -388058 -347039 -293203 -235651 -182497 -139505 
3860.667 -110256 -95514 -93229 -98827 -107970 -115788 -119431 -118007 
3864.525 -111746 -101312 -87862 -71132 -51056 -27632 -1722 24453 46390 57557 
3869.347 51990 27866 -9641 -52348 -93427 -130561 -164545 -197500 -230783 
3873.686 -263435 -292739 -315321 -329856 -337272 -340385 -342239 -345384 
3877.544 -350251 -355515 -358163 -353661 -338034 -309229 -269958 -227206 
3881.401 -187994 -157291 -136855 -125361 -120458 -119166 -118537 -115887 
3885.259 -109726 -99920 -88260 -77394 -69410 -65732 -67720 -75572 -89518 
3889.598 -109792 -135066 -163452 -192035 -217735 -238764 -254759 -266713 
3893.456 -276018 -284230 -292243 -300156 -307375 -312705 -314725 -311811 
3897.313 -303136 -289296 -272806 -257540 -247440 -244924 -249361 -257474 
3901.170 -264825 -268104 -266647 -262077 -258103 -258269 -263534 -272143 
3905.028 -281084 -287706 -291481 -294594 -299925 -309626 -324228 -341510 
3908.885 -356574 -363394 -356607 -333531 -295422 -247142 -196738 -152456 
3912.743 -120193 -102637 -99191 -106082 -118239 -131224 -141459 -147984 
3916.600 -152290 -157987 -168851 -186968 -211741 -239757 -265157 -281746 
3920.458 -285322 -273468 -248036 -212734 -173554 -136822 -108202 -91837 
3924.315 -88889 -97668 -113767 -131952 -147520 -156960 -158351 -151296 
3928.172 -137219 -118968 -101047 -88359 -84881 -92467 -109129 -129369 
3932.030 -146427 -154609 -151495 -139703 -124433 -112343 -108599 -115953 
3935.887 -134437 -161664 -193691 -225882 -254030 -275024 -287077 -289826 
3939.745 -284031 -272243 -257905 -245288 -239161 -243168 -257607 -280289 
3943.602 -306315 -330220 -347470 -356508 -357170 -350913 -339656 -324956 
3947.459 -308600 -291779 -276051 -262342 -251745 -243764 -237042 -229392 
3951.317 -218265 -202434 -183026 -163717 -150170 -148050 -161034 -189087 
3955.174 -227836 -269230 -303368 -321811 -319460 -296382 -256878 -208296 
3959.032 -159643 -118371 -90214 -78156 -82363 -100318 -127944 -159776 
3962.889 -190180 -214224 -228862 -232538 -225882 -211078 -191505 -171070 
3966.747 -153482 -141624 -137484 -141326 -151859 -166731 -182198 -194618 
3970.604 -202169 -203726 -201242 -197930 -198295 -205316 -220086 -240056 
3974.461 -260289 -274031 -275852 -263501 -238963 -207767 -177429 -155503 
3978.319 -145864 -149276 -162492 -180708 -198593 -213032 -223795 -232969 
3982.176 -243831 -259097 -280057 -306216 -335054 -363692 -389812 -411495 
3986.034 -427583 -436851 -438076 -429999 -412223 -385674 -353628 -321115 
3989.891 -295090 -280091 -278601 -289461 -307772 -327373 -342338 -349357 
3993.749 -347602 -339193 -326976 -313632 -300488 -287077 -272077 -254593 
3997.606 -234923 -215119 -197665 -186074 -182132 -186438 -197997 
##END=
