##TITLE=ab_1 01 12:41:34 2026 (GMT+02:00)
##JCAMP-DX=5.01  $$ Nicolet v. 970
##DATATYPE=INFRARED SPECTRUM
##ORIGIN=Vojna akademija
##OWNER=Nicolet
##LONGDATE=2026/09/01
##TIME=12:42:31
##SPECTROMETER/DATA SYSTEM=Nicolet iS20
##DATA PROCESSING=
Ratio against background
%Transmittance->Absorbance
Truncated
ElementMultiply or ElementDivide
##COMMENTS=
Number of sample scans: 8
Collection length: 11,90 sec
Sample gain: 8,0
Background collected on: Tue Sep 01 12:38:26 2026 (GMT+02:00);
Number of background scans: 8
Background gain: 8,0
Sample spacing:  1,000
Number of scan points: 12415
Resolution points: 8286
Number of FFT points: 65536
Apodization: N-B strong;
Phase correction: Mertz;
Laser frequency: 15798,00 cm-1
Number of rejected sample scans: 0
Number of rejected background scans: 0
Bench serial number: BER2010005;
##RESOLUTION= 4,000
##XUNITS=1/CM
##YUNITS=ABSORBANCE
##FIRSTX=400.156891
##LASTX=4000.123047
##FIRSTY=0.004682
##MAXX=4000.123047
##MINX=400.156891
##MAXY=0.179064
##MINY=-0.003709
##XFACTOR=1.000000
##YFACTOR=1.000000E-009
##NPOINTS=7468
##DELTAX=0.482117
##ZPD=6100
##XYDATA=(X++(Y..Y))
400.157 4682406 2650878 1307547 540420 144289 -106413 -370413 -696978 
404.014 -1001315 -1103782 -793861 43573 1356769 2895206 4314069 5259609 
407.871 5474002 4871650 3554447 1805543 2054 -1450502 -2251476 -2265716 
411.728 -1520242 -191406 1434386 3001623 4209839 4869740 4968800 4654775 
415.585 4196356 3921002 4153100 5181171 7134992 9836527 12637345 14646359 
419.442 15247571 14484597 12870497 10968946 9149583 7562976 6254673 5219265 
423.298 4448954 3952833 3740827 3796276 4058942 4432853 4801222 5057256 
427.155 5134263 5011366 4718345 4323975 3917324 3580738 3367846 3293488 
431.012 3328579 3411658 3464961 3427288 3268783 3006828 2698052 2430410 
434.869 2295685 2350816 2592275 2945309 3292019 3511923 3541786 3386112 
438.726 3114074 2822663 2608442 2536047 2617342 2817127 3069558 3314823 
442.583 3513059 3660358 3773949 3872993 3958651 4018141 4036734 4014362 
446.440 3978614 3977343 4051617 4216765 4442326 4666932 4820420 4861430 
450.297 4796766 4693793 4662176 4822664 5262795 5991248 6930989 7945316 
454.154 8893257 9645310 10108672 10222130 9949338 9290650 8309789 7161569 
458.011 6060188 5213598 4739013 4623830 4759983 4994775 5188246 5231573 
461.868 5083672 4774857 4399380 4067771 3863331 3813590 3890578 4031518 
465.725 4174309 4286562 4376084 4482497 4651593 4905662 5227079 5565044 
469.582 5848361 6013253 6021819 5866865 5572294 5186939 4768693 4367282 
473.439 4019411 3745506 3554280 3449263 3430427 3491948 3619895 3791596 
477.296 3975303 4134200 4234933 4249621 4157315 3948587 3625809 3210565 
481.152 2743064 2283860 1895853 1625346 1486548 1451972 1459818 1430895 
485.009 1302595 1046107 677688 245161 -186040 -554276 -813605 -928350 
488.866 -875611 -642060 -227637 351296 1050292 1793566 2488357 3034655 
492.723 3359431 3447727 3346275 3149784 2964458 2881964 2948912 3162166 
496.580 3473444 3812955 4111119 4321700 4431480 4453674 4415848 4344892 
500.437 4264377 4187591 4118512 4052152 3977744 3878375 3737786 3546930 
504.294 3308379 3043430 2788014 2590742 2498088 2537980 2708788 2974433 
508.151 3279066 3560761 3777257 3912042 3972628 3979918 3958651 3927288 
512.008 3894423 3861928 3830137 3802259 3786048 3791229 3822381 3874698 
515.865 3934376 3977912 3982091 3935981 3845881 3739524 3656916 3644954 
519.722 3741362 3962731 4301253 4720824 5164909 5561285 5842853 5956882 
523.579 5879023 5623176 5244719 4829466 4465691 4225698 4134802 4167886 
527.436 4264110 4357442 4400986 4377390 4299814 4201274 4119415 4081217 
531.293 4094930 4148216 4216029 4268861 4284990 4255711 4187055 4097807 
535.150 4012990 3958417 3950058 3991454 4069945 4163437 4244970 4296434 
539.007 4316278 4325883 4363299 4469441 4675138 4983078 5362415 5753566 
542.863 6090127 6312864 6388413 6314511 6112910 5818036 5462828 5074587 
546.720 4671956 4273479 3904921 3598111 3388716 3303037 3341901 3477285 
550.577 3656081 3822114 3933507 3980152 3982426 3980353 4010382 4086200 
554.434 4189096 4274315 4284554 4173005 3922607 3549870 3101560 2637043 
558.291 2218047 1890629 1680126 1594184 1625313 1756037 1959854 2206224 
562.148 2461965 2697985 2896440 3053941 3180490 3291218 3398868 3505242 
566.005 3598245 3656482 3661126 3604125 3496224 3363071 3238104 3149417 
569.862 3109869 3115943 3152855 3204389 3258401 3309013 3355157 3393058 
573.719 3413829 3406816 3364206 3290884 3210698 3163268 3188802 3316459 
577.576 3549336 3863398 4215326 4557058 4849234 5067882 5208936 5280806 
581.433 5294322 5251460 5140868 4943430 4644761 4247915 3784343 3311083 
585.290 2904379 2632843 2542113 2641343 2900776 3258334 3630754 3938823 
589.147 4115568 4124767 3966877 3678068 3322001 2971564 2695751 2536280 
593.004 2500821 2565477 2689750 2828966 2947277 3028215 3070025 3083606 
596.861 3082739 3077132 3067022 3044532 2998187 2920724 2816794 2705620 
600.717 2615909 2579709 2618675 2734528 2904212 3081537 3209363 3228891 
604.574 3103028 2827466 2435675 1987913 1558336 1214867 997352 912873 936017 
608.913 1025050 1134798 1233906 1311800 1372923 1428834 1487014 1545301 
612.770 1592621 1617165 1613772 1591025 1569210 1573965 1622685 1718346 
616.627 1843974 1971636 2069538 2119679 2122909 2100401 2084087 2106660 
620.484 2190772 2341188 2545279 2777343 3008997 3213068 3371018 3474513 
624.341 3519873 3505175 3425885 3274492 3044131 2735162 2361343 1950900 
628.198 1548027 1203470 960689 849392 871869 1004725 1202972 1419559 1616300 
632.537 1775799 1902609 2015708 2135662 2272236 2417982 2551178 2646044 
636.394 2681015 2647577 2549079 2395992 2196833 1956891 1679328 1373421 
640.251 1064375 796643 623698 599775 756147 1087760 1547994 2062580 2546246 
644.590 2924059 3156860 3245081 3225886 3154090 3088345 3073261 3129092 
648.447 3254294 3427555 3618893 3793435 3922306 3985235 3973364 3891414 
652.304 3758106 3602321 3454273 3341033 3277296 3263943 3290984 3344873 
656.161 3416567 3504474 3615117 3756335 3930264 4127644 4326050 4496491 
660.018 4614152 4663784 4646670 4575877 4471784 4352824 4229512 4105500 
663.875 3977845 3843207 3701861 3558289 3425918 3326509 3288514 3342869 
667.732 3498061 3717601 3923276 4050045 4078407 4026635 3926987 3811652 
671.589 3708243 3637102 3609537 3624773 3670583 3726156 3770439 3790393 
675.446 3781135 3746108 3690900 3618525 3526554 3411057 3272856 3123819 
679.302 2990547 2909249 2910550 3008697 3188701 3409187 3610172 3736616 
683.159 3753527 3659356 3485635 3287379 3121817 3025646 3005460 3037458 
687.016 3080302 3087611 3029917 2904612 2737662 2571676 2454867 2425379 
690.873 2499754 2672047 2917355 3202620 3496291 3777458 4040046 4288938 
694.730 4533118 4777001 5016193 5236234 5417399 5542626 5606427 5619417 
698.587 5607804 5604950 5644189 5745709 5911031 6123293 6353848 6572145 
702.444 6752018 6881165 6960718 7004087 7031530 7066621 7132601 7249933 
706.301 7436390 7703864 8054699 8479706 8958229 9461628 9958321 10424835 
710.158 10850434 11242175 11622121 12023109 12478888 13015236 13649067 
713.533 14386973 15229280 16173221 17214632 18346258 19553378 20813396 
716.908 22090708 23342876 24528994 25615084 26582496 27427568 28154740 
720.282 28767560 29260156 29615726 29813992 29838088 29683200 29358842 
723.657 28885222 28289386 27597328 26838238 26041138 25236084 24454638 
727.032 23721696 23052878 22449912 21902142 21390492 20894500 20399628 
730.407 19900254 19400210 18907556 18431882 17978898 17549294 17140174 
733.782 16747177 16366199 15996279 15640208 15305332 15003364 14747125 
737.156 14549727 14418348 14350979 14333684 14341492 14344094 14308994 
740.531 14211478 14039338 13794099 13489591 13147590 12792755 12446733 
743.906 12130219 11861368 11653228 11514999 11447364 11440560 11474852 
747.281 11523982 11560287 11559131 11506936 11400590 11247786 11062915 
750.656 10863242 10666343 10487354 10339418 10230238 10160360 10119490 
754.031 10087950 10038848 9945235 9791011 9577085 9325280 9070981 8856598 
757.888 8715504 8661959 8688460 8769833 8871647 8960158 9013062 9021486 
761.744 8989451 8926976 8846385 8758405 8671221 8593010 8532079 8496634 
765.601 8493863 8526943 8595342 8695086 8821532 8971624 9144913 9340615 
769.458 9554221 9771999 9970188 10115013 10171452 10112674 9928556 9630810 
773.315 9252502 8842159 8450008 8120492 7882823 7744676 7694083 7703831 
777.172 7742517 7778306 7788156 7760327 7692229 7589039 7458704 7309943 
781.029 7148870 6980281 6807381 6632767 6458190 6284457 6109650 5930412 
784.886 5743191 5547559 5348057 5154716 4981335 4842332 4746014 4693860 
788.743 4679257 4691784 4719786 4755059 4794120 4837407 4886092 4940883 
792.600 4999568 5058530 5113845 5161824 5198508 5218662 5212793 5171414 
796.457 5085885 4956098 4793818 4626275 4486983 4407949 4406509 4477576 
800.314 4593725 4713589 4800988 4834692 4819984 4784706 4770937 4815093 
804.171 4933510 5116896 5331990 5532659 5672689 5723315 5676415 5546351 
808.028 5362012 5161891 4983513 4856203 4799480 4817404 4898323 5017333 
811.885 5143014 5244115 5297508 5296670 5251661 5185363 5123132 5083840 
815.742 5071805 5077001 5079616 5061178 5013176 4942391 4868366 4815494 
819.598 4805377 4846185 4932069 5044920 5162394 5263399 5335579 5375799 
823.455 5388111 5380362 5359932 5331688 5297810 5257664 5209406 5151229 
827.312 5082600 5004361 4920641 4837407 4762964 4704378 4667099 4652531 
831.169 4658391 4680363 4713823 4756130 4806382 4863809 4926405 4988474 
835.026 5041668 5076397 5086790 5073615 5045490 5016662 5002517 5015054 
838.883 5058496 5129267 5218426 5316292 5415453 5513162 5610321 5709885 
842.740 5813469 5921746 6032402 6142280 6246505 6338046 6407546 6443023 
846.597 6432498 6368373 6252421 6098259 5927826 5768977 5643450 5562259 
850.454 5523463 5516215 5527692 5550311 5585819 5641873 5723986 5828111 
854.311 5934511 6011774 6028304 5962996 5817532 5617739 5407032 5227749 
858.168 5109755 5058965 5057725 5073213 5073213 5041065 4980832 4916251 
862.025 4879625 4901339 4996082 5158538 5364897 5582396 5776465 5921041 
865.882 6004383 6029076 6010800 5971427 5934611 5916103 5919798 5934242 
869.739 5936761 5898907 5795907 5617504 5372579 5089405 4805444 4561512 
873.596 4388535 4300818 4298040 4368286 4496290 4668774 4877212 5113845 
877.452 5365501 5610891 5819581 5957923 6002737 5947174 5807962 5621397 
881.309 5436825 5299487 5239688 5265143 5360737 5494538 5629453 5736912 
885.166 5800642 5821025 5810648 5789091 5774216 5776465 5797283 5829588 
889.023 5862869 5887454 5899746 5903407 5908513 5926449 5966422 6030118 
892.880 6110960 6194541 6263850 6305232 6312024 6286407 6239076 6184659 
896.737 6135727 6101518 6085019 6084818 6096242 6116236 6143019 6176661 
900.594 6216858 6261094 6302375 6331859 6338146 6312292 6249799 6152328 
904.451 6028438 5890980 5756017 5638416 5548935 5493027 5469908 5474069 
908.308 5496148 5527592 5560983 5592599 5622069 5651373 5682894 5717809 
912.165 5754338 5789124 5817936 5837816 5848865 5854272 5860082 5872945 
916.022 5898638 5940355 5998974 6072116 6156025 6245799 6335221 6416423 
919.879 6480791 6518158 6519907 6480118 6398299 6279213 6134853 5982312 
923.736 5840234 5728686 5664297 5657348 5710960 5820555 5973779 6150950 
927.593 6330683 6489603 6607771 6673882 6685626 6651979 6591051 6528215 
931.450 6491721 6506016 6589268 6747879 6974960 7249596 7542376 7817607 
935.306 8039882 8182782 8233196 8194533 8084540 7933505 7774596 7636787 
939.163 7541870 7498583 7504786 7549490 7618948 7699615 7781612 7859778 
943.020 7932762 8001169 8066446 8130046 8193891 8261156 8337315 8429568 
946.877 8545360 8689677 8861637 9052305 9243972 9413882 9537185 9594259 
950.734 9576984 9492275 9361234 9214154 9085022 9000377 8974263 9005384 
954.591 9078932 9170259 9252502 9305205 9316207 9285910 9224714 9151445 
958.448 9086579 9049363 9053321 9102887 9193645 9312653 9443240 9567466 
962.305 9671634 9749498 9802940 9840052 9870794 9902623 9936930 9968120 
966.162 9985547 9979512 9945066 9884454 9807006 9724897 9647614 9577322 
970.019 9506838 9422381 9310790 9166402 8996520 8823831 8682274 8604602 
973.876 8614403 8714220 8884058 9082519 9259881 9372778 9393127 9318273 
977.733 9168500 8980994 8794549 8638704 8526064 8450481 8393016 8330594 
981.590 8246939 8136359 8005758 7868720 7741101 7633583 7550096 7488874 
985.447 7447075 7424155 7425402 7458839 7532834 7648421 7796590 7955979 
989.304 8097165 8191460 8216717 8165765 8047646 7885894 7710003 7548748 
993.160 7423144 7340405 7294847 7271328 7252662 7223014 7173561 7103904 
997.017 7019542 6929306 6841982 6764201 6699220 6648278 6610731 6585904 
1000.874 6572246 6567638 6568344 6569488 6566191 6555629 6537935 6517317 
1004.731 6499693 6490746 6491351 6495556 6490040 6458056 6381924 6251076 
1008.588 6064859 5835230 5583168 5333969 5113510 4940916 4827455 4775895 
1012.445 4781892 4836535 4927913 5044417 5173191 5301601 5417533 5509302 
1016.302 5568031 5588404 5569676 5515074 5432095 5330145 5220170 5113577 
1020.159 5020383 4948055 4900233 4876944 4875403 4892425 4926975 4981000 
1024.016 5060273 5170408 5312702 5478666 5649426 5795269 5883793 5890913 
1027.873 5808063 5648721 5444240 5238984 5073917 4976676 4955863 4999669 
1031.731 5082264 5173057 5249280 5297945 5319176 5320853 5315084 5311864 
1035.588 5316929 5330715 5349332 5364226 5363421 5333231 5261252 5139829 
1039.446 4971414 4771507 4566099 4385154 4254774 4187624 4177320 4200404 
1043.303 4228140 4235802 4215326 4179127 4156412 4181669 4277528 4447045 
1047.161 4667300 4899395 5095439 5218393 5250520 5197535 5083873 4946680 
1051.018 4823737 4741760 4714460 4739147 4799849 4871885 4927243 4943765 
1054.875 4907940 4821358 4699353 4569012 4458595 4390911 4374277 4400217 
1058.733 4445305 4481158 4486782 4454678 4395430 4333045 4296066 4305335 
1062.590 4367817 4473659 4602431 4729031 4832548 4901976 4934783 4935487 
1066.448 4909449 4861799 4794857 4711110 4616027 4520161 4437639 4383849 
1070.305 4369625 4398242 4463449 4551467 4644292 4724174 4780786 4812379 
1074.162 4827556 4841628 4873962 4938503 5040964 5173224 5315453 5439274 
1078.020 5515813 5525410 5462358 5338094 5176846 5011400 4871717 4777436 
1081.877 4735362 4738477 4771205 4813786 4849904 4865485 4851981 4805276 
1085.735 4724877 4614587 4482966 4344825 4218437 4122793 4073725 4076802 
1089.592 4126807 4206092 4291782 4357910 4384117 4360421 4288470 4181770 
1093.450 4060982 3951362 3875166 3846918 3871622 3941933 4040447 4143499 
1097.307 4228977 4279268 4286328 4252030 4185818 4099178 4002825 3903918 
1101.164 3805602 3710650 3623603 3551841 3505443 3494954 3525652 3597777 
1105.022 3706606 3843709 4001620 4174176 4356839 4543197 4724073 4884785 
1108.879 5007076 5075895 5081594 5026819 4925903 4803266 4685722 4594528 
1112.737 4540652 4523409 4532047 4551869 4571323 4584483 4593490 4605244 
1116.594 4628418 4668372 4723638 4785678 4840925 4874934 4876408 4842030 
1120.452 4777369 4697143 4619778 4564726 4546076 4569414 4630628 4718077 
1124.309 4818041 4916821 5006272 5083940 5151229 5211317 5265646 5313105 
1128.166 5350305 5373149 5379590 5370633 5351411 5328937 5309650 5298917 
1132.024 5298850 5309382 5329138 5356745 5391801 5434712 5486786 5549707 
1135.881 5624855 5712370 5810648 5915096 6018796 6112204 6186138 6234606 
1139.739 6257531 6261867 6261632 6274977 6316999 6397088 6514424 6659078 
1143.596 6814416 6963209 7093194 7199432 7284637 7357322 7427997 7504550 
1147.453 7591197 7687203 7788663 7889571 7982337 8060202 8116677 8146555 
1151.311 8147602 8122247 8077923 8026887 7984800 7965564 7978793 8027360 
1155.168 8105875 8203953 8308336 8407001 8490687 8554720 8597403 8619472 
1159.026 8622920 8609469 8581215 8540595 8489978 8431899 8368019 8299420 
1162.883 8226307 8149189 8069417 7989863 7914676 7848105 7793689 7753547 
1166.741 7727980 7716343 7716479 7725214 7738234 7749263 7750511 7733680 
1170.598 7691082 7618172 7514596 7384755 7236154 7078105 6919711 6767835 
1174.455 6627822 6503527 6398130 6314175 6253026 6213598 6191583 6179988 
1178.313 6171048 6157000 6133979 6101820 6064187 6025784 5991718 5963970 
1182.170 5942505 5924836 5908848 5893802 5881677 5876572 5883524 5906162 
1186.028 5945864 5999075 6058206 6113515 6153606 6169502 6156798 6116337 
1189.885 6053973 5978885 5902164 5832779 5777137 5738054 5716332 5711430 
1193.743 5723650 5753633 5801313 5864515 5937366 6009490 6069294 6105718 
1197.600 6111162 6083507 6025716 5944789 5848260 5743325 5635495 5529605 
1201.457 5431356 5347823 5286440 5253338 5250823 5275842 5320484 5375296 
1205.315 5431792 5485444 5536081 5587531 5643652 5706629 5775458 5846615 
1209.172 5916238 5981942 6043792 6103131 6160797 6215413 6261967 6294138 
1213.030 6306745 6298509 6273397 6240253 6210506 6193566 6194810 6214337 
1216.887 6248690 6292289 6340265 6389892 6440199 6491923 6545336 6601210 
1220.745 6660255 6724120 6795971 6879111 6975970 7086795 7208259 7333767 
1224.602 7455199 7565943 7661876 7742517 7810388 7868855 7920514 7965935 
1228.459 8003970 8032254 8050075 8056792 8054194 8043257 8025200 7999819 
1232.317 7966070 7923146 7870238 7807790 7735872 7654929 7564763 7464940 
1236.174 7356649 7242926 7129434 7022607 6929205 6852956 6794524 6751379 
1240.032 6719611 6695249 6677213 6666413 6665504 6676776 6700532 6734418 
1243.889 6774095 6814483 6851980 6885507 6915536 6943412 6968496 6987351 
1247.746 6993985 6982133 6947419 6890456 6817748 6740879 6672133 6622069 
1251.604 6595054 6589268 6595626 6602254 6598620 6577259 6537431 6483010 
1255.461 6422308 6362892 6310981 6269934 6239916 6220858 6212858 6216892 
1259.319 6234707 6266102 6308662 6355865 6399509 6432262 6448841 6448236 
1263.176 6432968 6407882 6377518 6346048 6316360 6291180 6273699 6267245 
1267.034 6275145 6298274 6334347 6377586 6420795 6458493 6488762 6515500 
1270.891 6545773 6588225 6647269 6721933 6804554 6884194 6950887 6998396 
1274.748 7026378 7039343 7044361 7046415 7047022 7044159 7034393 7016478 
1278.606 6993210 6971627 6961695 6971358 7003986 7055878 7118993 7182319 
1282.463 7236322 7276214 7302260 7318670 7331037 7344416 7361029 7380543 
1286.321 7401101 7420548 7438379 7456244 7477008 7504887 7544399 7598952 
1290.178 7670948 7760901 7867539 7987264 8115057 8245386 8372647 8492512 
1294.036 8603115 8703807 8796239 8882029 8962931 9040059 9113614 9183898 
1297.893 9251655 9317561 9383105 9448252 9511648 9570107 9618649 9651477 
1301.750 9663571 9652086 9616820 9560962 9490820 9414120 9339363 9274232 
1305.608 9224612 9193577 9181258 9184981 9199195 9216624 9229925 9232024 
1309.465 9217335 9183831 9132427 9067666 8996555 8927687 8869347 8826368 
1313.323 8799519 8784642 8774736 8762125 8741738 8711752 8673553 8629578 
1317.180 8581621 8529613 8471292 8404535 8329682 8250755 8175962 8113976 
1321.037 8071003 8048016 8040861 8041738 8042987 8041131 8037384 8037351 
1324.895 8047544 8071577 8107899 8150370 8191629 8227050 8258759 8295064 
1328.752 8348056 8429095 8543602 8688833 8854366 9025850 9190938 9341496 
1332.610 9476427 9600187 9719611 9840255 9965577 10095411 10227897 10360898 
1336.467 10494041 10627803 10764493 10905507 11051733 11202564 11357393 
1339.842 11515237 11676032 11838282 12000082 12155979 12300002 12424706 
1343.218 12524345 12597708 12648193 12684150 12717346 12759211 12817325 
1346.593 12895209 12991576 13103023 13225943 13358362 13500426 13652555 
1349.968 13814861 13984825 14156292 14321561 14471785 14599890 14702703 
1353.343 14781748 14844041 14900103 14963751 15048366 15164873 15320159 
1356.719 15516570 15752545 16024126 16327733 16662953 17035680 17460740 
1360.094 17964808 18585610 19363450 20332366 21497572 22821040 24219320 
1363.469 25588692 26838062 27905924 28765578 29406880 29825348 30021260 
1366.844 30004216 29806434 29486698 29134314 28847508 28708582 28777190 
1370.220 29081630 29634174 30447606 31546588 32968606 34747600 36884016 
1373.595 39304368 41843640 44284276 46412272 48088344 49258332 49911908 
1376.970 50046560 49645712 48688604 47184156 45198844 42862704 40329808 
1380.345 37754164 35250908 32886218 30697846 28701184 26900242 25288586 
1383.721 23845804 22538406 21324120 20163718 19031228 17924924 16869030 
1387.096 15903024 15058897 14346013 13746696 13232468 12778934 12371555 
1390.471 12006247 11682193 11396814 11141368 10901531 10659994 10403046 
1393.846 10124645 9830900 9537050 9261302 9016513 8807804 8635223 8497749 
1397.704 8393895 8319312 8265040 8215265 8154894 8075595 7979873 7878471 
1401.561 7784480 7709160 7657829 7628896 7615711 7610248 7606539 7603336 
1405.419 7603774 7609877 7619757 7628019 7628019 7616318 7594906 7570764 
1409.276 7551850 7543556 7545747 7552929 7558963 7562571 7569247 7590994 
1413.133 7639518 7720020 7829044 7955170 8085114 8208782 8324717 8439771 
1416.991 8564723 8705295 8854637 8990634 9089049 9141157 9164338 9188941 
1420.848 9244175 9345592 9496272 9692708 9928862 10199232 10498590 10821389 
1424.706 11159216 11501083 11837806 12164362 12485094 12813161 13170986 
1428.081 13584825 14076094 14654069 15311922 16030487 16789364 17575066 
1431.456 18381342 19204736 20040764 20880766 21717940 22556066 23413438 
1434.831 24327870 25348366 26511592 27800256 29128964 30381684 31479358 
1438.207 32415162 33235472 34002932 34776964 35599012 36489936 37450556 
1441.582 38468220 39525328 40605600 41700208 42804740 43915688 45029996 
1444.957 46144892 47263356 48397668 49568972 50797932 52092756 53442116 
1448.332 54817296 56193072 57568152 58969080 60442400 62033736 63765296 
1451.708 65617724 67529576 69421568 71214160 72864816 74371576 75761384 
1455.083 77071608 78326344 79513400 80568872 81415448 82026072 82439376 
1458.458 82723936 82917880 83027984 83049008 82981816 82836400 82625624 
1461.833 82353696 82008432 81552712 80931056 80082192 78966176 77587328 
1465.209 75979232 74172336 72167968 69933456 67441792 64696752 61749536 
1468.584 58670076 55535816 52395712 49230496 45968676 42507892 38794384 
1471.959 34921684 31177188 27919740 25358904 23467854 22062924 20932432 
1475.334 19932656 18993670 18107454 17293928 16570622 15935333 15367941 
1478.710 14842910 14341149 13854711 13386996 12945182 12534781 12154344 
1482.085 11797969 11459747 11138547 10838374 10564686 10318550 10093410 
1485.460 9874116 9642126 9383477 9095375 8789173 8486767 8210774 7974541 
1489.318 7775945 7601212 7436997 7278000 7128323 6993547 6875644 6769888 
1493.175 6667927 6560607 6442048 6311385 6175283 6045069 5932495 5841913 
1497.032 5766929 5694308 5613342 5522021 5425552 5332493 5248374 5174532 
1500.890 5107575 5042440 4975537 4904992 4830973 4753852 4671654 4580364 
1504.747 4474563 4351318 4220478 4115702 4086367 4153368 4278464 4397840 
1508.605 4473860 4503019 4498768 4481493 4470814 4483435 4527326 4601058 
1512.462 4693961 4791507 4879256 4945038 4980530 4978654 4935386 4851847 
1516.319 4740252 4623361 4525150 4461541 4433589 4430978 4437873 4437539 
1520.177 4414007 4356773 4266853 4157415 4044527 3933975 3819173 3689430 
1524.034 3537176 3363839 3180891 3007495 2866187 2769440 2715223 2687416 
1527.892 2667113 2639377 2598408 2545679 2486558 2426445 2369505 2320535 
1531.749 2286258 2277798 2308676 2385430 2497022 2614508 2709388 2764571 
1535.607 2778343 2757702 2713889 2659079 2606308 2570276 2562444 2586809 
1539.464 2627842 2652245 2624509 2532014 2387596 2215116 2036213 1869963 
1543.321 1737507 1659703 1650823 1711394 1821548 1948970 2061015 2137459 
1547.179 2168927 2157572 2111954 2047000 1979891 1924408 1887234 1865071 
1551.036 1850263 1836355 1823511 1818420 1832794 1877717 1958323 2069904 
1554.894 2199797 2332627 2457733 2570976 2671414 2756468 2813659 2814493 
1558.751 2732194 2581109 2416549 2277032 2166263 2074931 1994503 1921912 
1562.609 1857684 1805510 1769877 1753343 1754773 1768646 1787610 1806142 
1566.466 1822945 1840414 1862409 1890495 1921446 1944244 1944809 1914057 
1570.323 1854889 1779958 1702945 1632929 1573034 1522623 1480231 1445190 
1574.181 1419194 1406994 1413509 1439738 1477871 1512017 1528209 1522258 
1578.038 1499781 1470157 1440968 1417831 1403038 1396024 1395226 1398584 
1581.896 1405099 1413808 1423715 1432025 1433588 1422817 1395592 1351982 
1585.753 1297078 1239854 1189914 1154265 1135661 1132107 1138385 1149149 
1589.610 1160810 1173136 1187987 1207358 1231713 1259426 1287839 1315423 
1593.468 1343175 1374684 1414673 1465569 1525583 1587799 1642840 1682255 
1597.325 1701115 1700051 1683818 1659770 1634991 1615868 1605957 1607221 
1601.183 1620124 1644769 1680126 1724999 1776564 1830764 1882941 1929000 
1605.040 1964979 1987613 1993871 1981122 1947738 1894289 1825540 1749450 
1608.898 1675702 1612908 1565851 1534627 1515541 1502807 1491369 1477305 
1612.755 1459552 1438142 1413742 1386218 1354376 1316653 1273118 1226629 
1616.612 1182871 1147588 1121908 1103006 1085833 1066667 1043849 1018009 
1620.470 990477 962848 936449 910250 883024 852812 819846 786053 754122 
1624.809 724848 696903 667135 631894 589456 541847 494973 457722 436926 
1629.149 434704 447208 467043 485817 496731 495702 480842 452747 412582 
1633.489 363267 310245 262998 236309 244266 287632 348013 399979 424488 
1637.828 416197 381208 331400 282095 247316 238696 258787 302287 355939 
1642.168 405186 438087 448667 437291 410625 378025 350235 338032 349273 
1646.507 385287 439181 498423 551169 590319 612550 616432 599875 560625 
1650.847 496034 404688 290384 172695 91194 84168 142300 219800 283023 324304 
1655.669 348378 362074 370497 376731 382701 389599 398785 411587 429065 
1660.008 450757 474241 496001 511260 515473 507412 488571 463195 435400 
1664.348 407375 379484 351959 325664 302320 285444 278282 282625 298143 
1668.688 320590 345360 369402 393877 422233 455898 492485 526222 549411 
1673.027 555681 540918 505521 455898 403528 359819 328979 306200 282128 
1677.367 249537 205446 151548 93083 38039 -6891 -38665 -58179 -68548 -71596 
1682.189 -63977 -35882 27170 131495 257726 363433 418552 423095 395004 
1686.528 352556 309018 273906 252621 249140 264390 297380 344167 398520 
1690.868 453410 500479 532591 544601 533421 498389 442962 375968 312732 
1695.207 275762 284979 344863 441503 556212 678253 808161 954015 1122307 
1699.547 1305719 1476640 1596944 1648727 1644171 1608418 1560497 1510321 
1703.404 1462012 1417631 1380169 1354475 1345867 1356802 1384523 1422086 
1707.262 1461247 1495193 1519864 1533363 1535924 1528609 1513180 1491868 
1711.119 1466500 1439106 1411315 1384091 1357267 1329481 1297178 1254807 
1714.977 1197257 1120380 1023556 911512 795613 690764 610526 559099 530999 
1719.316 516535 507512 499749 492120 485519 481903 483827 493845 513715 
1723.656 544700 585608 633852 683795 729494 764279 782535 782369 765308 
1727.995 737195 706030 681173 668994 671848 687412 711075 739949 774104 
1732.335 817191 873861 942592 1009374 1050093 1047801 1005190 937246 860747 
1736.675 787414 726839 686582 672445 687346 728897 786585 845840 894180 
1741.014 923465 931003 917289 884120 833922 769921 696406 617792 538695 
1745.354 462698 391920 327554 269463 216518 166563 117641 68758 21471 -20178 
1750.176 -50460 -65434 -65600 -57815 -52944 -60664 -87961 -137087 -205647 
1754.515 -287640 -373425 -451514 -509203 -538028 -537532 -516054 -485440 
1758.373 -456082 -433177 -417685 -408847 -406430 -412852 -432382 -468659 
1762.230 -520257 -579525 -635542 -677724 -698963 -697540 -676236 -641928 
1766.088 -603514 -571484 -554012 -554343 -569002 -589385 -604209 -603183 
1769.945 -579061 -527968 -451150 -357865 -266713 -202169 -180841 -205481 
1773.802 -264991 -343000 -422352 -489478 -535083 -555170 -551960 -533329 
1777.660 -510428 -492688 -486698 -493317 -507581 -520422 -522838 -510990 
1781.517 -488088 -463000 -446913 -450786 -481005 -538028 -614268 -696184 
1785.375 -766905 -812051 -825015 -806329 -762969 -705248 -645170 -592959 
1789.232 -556030 -538260 -538922 -552986 -572675 -590047 -600569 -605996 
1793.089 -611654 -623962 -646262 -677427 -713849 -750400 -782384 -806594 
1796.947 -823163 -834705 -845750 -860929 -883679 -914166 -949642 -983728 
1800.804 -1008753 -1018802 -1011463 -989116 -958569 -928879 -908677 -904379 
1804.662 -918596 -948419 -986637 -1023628 -1050568 -1061542 -1056418 
1808.037 -1040519 -1022901 -1012191 -1013083 -1024917 -1042569 -1058435 
1811.412 -1068020 -1072119 -1077341 -1091784 -1121893 -1169414 -1230080 
1814.787 -1295099 -1353138 -1394193 -1412722 -1408659 -1386927 -1355252 
1818.163 -1320502 -1286641 -1254364 -1223042 -1191950 -1161813 -1135112 
1821.538 -1114886 -1103881 -1103352 -1112903 -1130353 -1153552 -1180087 
1824.913 -1208537 -1239364 -1273262 -1311715 -1354888 -1401162 -1446440 
1828.288 -1483524 -1501488 -1489865 -1443171 -1367473 -1278085 -1195419 
1831.664 -1136037 -1107748 -1111052 -1139871 -1181640 -1220366 -1240223 
1835.039 -1229023 -1182632 -1106029 -1013116 -922729 -853356 -818665 -823328 
1838.896 -862582 -923358 -989215 -1044288 -1074168 -1069375 -1025479 -944848 
1842.754 -837119 -719671 -613904 -534884 -486962 -460981 -441485 -415236 
1846.611 -377265 -332339 -292673 -273369 -288236 -344093 -438638 -560895 
1850.469 -696283 -832059 -958470 -1070301 -1165514 -1243957 -1305736 
1853.844 -1352345 -1385210 -1406380 -1418138 -1422266 -1418501 -1405621 
1857.219 -1381511 -1344880 -1297213 -1244816 -1196807 -1165151 -1159963 
1860.594 -1185672 -1238274 -1306661 -1373451 -1420582 -1434386 -1407272 
1863.970 -1337910 -1232096 -1100377 -956056 -813572 -689733 -602091 -569167 
1867.827 -604474 -708589 -861359 -1025380 -1160723 -1236919 -1242668 
1871.202 -1183193 -1077737 -951163 -830604 -741502 -700021 -712426 -773355 
1875.060 -868336 -976157 -1073209 -1141226 -1167596 -1150875 -1099386 
1878.435 -1031297 -968156 -931326 -935591 -984422 -1068152 -1166935 -1258031 
1882.292 -1320601 -1341412 -1318652 -1260212 -1181112 -1096378 -1018868 
1885.668 -954866 -906032 -872668 -856035 -859342 -885994 -936285 -1003331 
1889.525 -1072581 -1127478 -1153585 -1146480 -1111978 -1063591 -1016554 
1892.900 -983794 -973446 -986372 -1018604 -1063855 -1117662 -1179558 
1896.276 -1254067 -1345805 -1457371 -1585151 -1719165 -1843140 -1940889 
1899.651 -1998743 -2009957 -1976447 -1908199 -1820836 -1732597 -1662792 
1903.026 -1626977 -1634008 -1683817 -1766687 -1865146 -1954743 -2012266 
1906.401 -2018433 -1964441 -1852675 -1697547 -1518823 -1335268 -1162012 
1909.776 -1006670 -871180 -756817 -668428 -615757 -613804 -676236 -808281 
1913.634 -1000951 -1230377 -1458395 -1643845 -1754213 -1770152 -1692134 
1917.009 -1540317 -1352543 -1169447 -1022438 -924184 -867642 -839434 -828851 
1920.867 -836094 -870915 -948882 -1078828 -1255223 -1454729 -1642723 
1924.242 -1783351 -1854589 -1850003 -1780216 -1668667 -1544807 -1437458 
1927.617 -1365722 -1335565 -1340520 -1364005 -1384285 -1383360 -1352180 
1930.992 -1293678 -1221820 -1158410 -1126486 -1140994 -1205035 -1306430 
1934.368 -1422035 -1525096 -1596706 -1630179 -1635032 -1630047 -1635758 
1937.743 -1665102 -1716657 -1774904 -1815886 -1817569 -1767512 -1667314 
1941.118 -1534803 -1400700 -1296651 -1246468 -1257668 -1323343 -1428277 
1944.493 -1554316 -1685269 -1804700 -1896257 -1943990 -1935216 -1866004 
1947.869 -1743685 -1588717 -1428046 -1285617 -1175395 -1095750 -1028983 
1951.244 -950998 -840724 -687153 -494873 -281382 -71166 111046 246089 318733 
1955.583 321320 248311 103125 -104260 -355415 -625418 -887647 -1119744 
1959.441 -1308313 -1449578 -1548736 -1614862 -1652295 -1663815 -1649853 
1962.816 -1618692 -1590665 -1598159 -1678305 -1861715 -2156072 -2537927 
1966.191 -2953147 -3332000 -3600685 -3708749 -3642580 -3423596 -3093779 
1969.567 -2703522 -2303620 -1939042 -1656388 -1495016 -1473354 -1579572 
1972.942 -1766027 -1956920 -2065065 -2021599 -1800477 -1430985 -991596 
1976.317 -580749 -284660 -142287 -143645 -240354 -379384 -515690 -632300 
1980.174 -736673 -845188 -968190 -1104707 -1237977 -1343823 -1401228 
1983.550 -1395283 -1321328 -1182665 -986637 -748019 -495468 -276117 -146593 
1987.407 -167923 -375511 -761812 -1269396 -1805624 -2256355 -2517305 
1990.782 -2531767 -2306982 -1917699 -1475798 -1096279 -855969 -776861 
1994.158 -834639 -979463 -1159599 -1336457 -1492308 -1625591 -1741573 
1997.533 -1841655 -1919481 -1960879 -1946695 -1860890 -1695897 -1456810 
2000.908 -1165878 -862119 -595077 -420797 -380410 -489478 -725493 -1034107 
2004.766 -1329685 -1521761 -1545963 -1382700 -1068384 -686590 -341610 
2008.141 -120988 -76201 -213363 -499274 -879083 -1294735 -1704346 -2079970 
2011.998 -2404363 -2662261 -2835117 -2905656 -2866619 -2731379 -2539310 
2015.373 -2347914 -2225863 -2226523 -2372597 -2638747 -2960189 -3239990 
2018.749 -3383390 -3325029 -3036663 -2538618 -1894079 -1201037 -558876 
2022.124 -52348 270789 407541 390030 271121 106340 -56622 -191605 -292143 
2026.464 -369453 -446781 -546566 -687186 -875148 -1099188 -1329850 -1529653 
2030.321 -1652064 -1662528 -1548901 -1329784 -1053774 -789164 -604805 
2033.696 -539683 -595374 -734490 -899749 -1034404 -1100377 -1088281 -1014835 
2037.554 -910529 -800839 -706373 -640935 -617146 -655757 -782186 -1013909 
2041.411 -1345904 -1743553 -2141499 -2459289 -2634268 -2636442 -2485910 
2044.786 -2242873 -1988288 -1787476 -1671506 -1631929 -1632259 -1632721 
2048.161 -1609878 -1568281 -1534077 -1534341 -1579275 -1654936 -1728472 
2051.537 -1765367 -1742464 -1662726 -1550123 -1443006 -1374079 -1360603 
2054.912 -1396472 -1460971 -1523346 -1557749 -1549727 -1493992 -1391683 
2058.287 -1247459 -1067359 -861359 -646096 -445987 -284230 -180244 -139538 
2062.145 -152489 -196738 -247175 -285488 -306746 -320718 -343331 -390441 
2066.002 -468494 -572079 -689634 -809438 -923358 -1028619 -1124900 -1208108 
2069.859 -1268835 -1295825 -1281224 -1228527 -1156857 -1096444 -1076878 
2073.235 -1116539 -1212734 -1340982 -1461895 -1536256 -1540911 -1475434 
2076.610 -1362618 -1236523 -1133724 -1078531 -1075820 -1113796 -1170174 
2079.985 -1220564 -1246600 -1242470 -1212601 -1171099 -1136037 -1126453 
2083.360 -1156956 -1235796 -1362419 -1526813 -1712135 -1894178 -2049631 
2086.736 -2159369 -2210864 -2202227 -2139487 -2036935 -1910772 -1781635 
2090.111 -1667479 -1581553 -1529917 -1509016 -1505087 -1496105 -1459055 
2093.486 -1374178 -1232955 -1043362 -826801 -613374 -430164 -295190 -211641 
2097.344 -169414 -151031 -140995 -132151 -127812 -138511 -176568 -249560 
2101.201 -354786 -481104 -611621 -730719 -827958 -901899 -957775 -1006207 
2105.058 -1058699 -1124437 -1207909 -1309601 -1424710 -1544510 -1660349 
2108.434 -1762661 -1845054 -1906516 -1949334 -1979020 -1999898 -2012629 
2111.809 -2011375 -1986705 -1926540 -1823112 -1676127 -1495181 -1295924 
2115.184 -1099022 -922994 -779804 -675938 -612282 -586440 -597029 -642622 
2119.042 -720895 -825147 -943592 -1058005 -1147405 -1195849 -1195585 
2122.417 -1151007 -1078299 -1001612 -943956 -922101 -941741 -995992 -1069574 
2126.274 -1144828 -1207149 -1248549 -1268934 -1273394 -1268835 -1259551 
2129.649 -1245047 -1219375 -1175924 -1109400 -1021347 -921341 -824188 
2133.025 -747655 -704983 -701576 -733365 -791711 -865029 -946204 -1035231 
2136.882 -1138218 -1260410 -1403970 -1559400 -1708373 -1826148 -1892595 
2140.257 -1896356 -1842843 -1749461 -1638135 -1529355 -1435641 -1357762 
2143.633 -1293083 -1239166 -1203383 -1201268 -1255157 -1382237 -1584986 
2147.008 -1845351 -2120627 -2356054 -2498132 -2505775 -2360734 -2070803 
2150.383 -1666918 -1191950 -696283 -229227 172728 479548 671549 739418 
2154.240 684591 516966 262003 -46948 -373326 -684969 -954866 -1170636 
2158.098 -1324895 -1412226 -1427947 -1362783 -1208967 -972388 -673920 
2161.473 -354190 -68018 126656 194474 127916 -41051 -253699 -438506 -537565 
2165.813 -524956 -416162 -260686 -122280 -56721 -91572 -214291 -380510 
2169.670 -532369 -614301 -594514 -476305 -293600 -100218 49637 112769 70349 
2174.010 -73054 -287905 -535778 -775538 -972388 -1105930 -1171000 -1181376 
2177.867 -1159864 -1141688 -1159996 -1234309 -1365458 -1530874 -1685632 
2181.242 -1773386 -1747316 -1583765 -1292984 -918398 -524493 -180940 60341 
2185.100 172961 165038 68228 -68085 -197665 -288071 -325254 -311613 -263633 
2189.439 -199785 -135894 -82065 -44794 -28825 -45093 -108566 -235651 -439830 
2193.779 -723111 -1071094 -1451691 -1822881 -2139059 -2360997 -2471447 
2197.154 -2473753 -2393885 -2268320 -2135498 -2022061 -1939438 -1883555 
2200.530 -1841193 -1799058 -1749362 -1693686 -1641634 -1604794 -1589938 
2203.905 -1595848 -1611297 -1620342 -1604596 -1552401 -1458659 -1327274 
2207.280 -1169083 -998141 -831133 -684142 -571186 -503709 -488750 -525783 
2211.137 -604639 -707464 -805602 -870948 -882753 -834903 -738360 -623201 
2214.995 -528894 -488981 -523500 -628429 -776034 -923258 -1024653 -1048684 
2218.852 -985612 -852265 -682554 -521481 -405040 -353628 -367830 -432482 
2222.710 -523732 -616749 -695423 -751855 -785493 -801402 -805767 -804014 
2226.567 -800839 -801104 -808082 -824354 -850810 -885035 -924383 -966437 
2230.425 -1011463 -1062699 -1124206 -1197072 -1275178 -1345706 -1390131 
2233.800 -1390131 -1337184 -1234210 -1099122 -956784 -832820 -742826 -689534 
2237.657 -660885 -637627 -601264 -539550 -451680 -347503 -243466 -156795 
2241.515 -103697 -97469 -146063 -254692 -421690 -638090 -885498 -1138251 
2245.372 -1367407 -1545699 -1656685 -1697580 -1679757 -1623214 -1549264 
2248.747 -1474708 -1406083 -1342535 -1278746 -1212502 -1147240 -1092776 
2252.123 -1062765 -1070466 -1121860 -1213560 -1331403 -1453871 -1554052 
2255.498 -1606610 -1593240 -1505285 -1348778 -1141424 -913835 -700286 
2258.873 -531111 -426755 -392659 -417818 -481369 -561159 -639082 -707398 
2262.730 -768559 -829579 -894988 -962669 -1021050 -1053378 -1045312 -989579 
2266.588 -891781 -768327 -643251 -538988 -474584 -459392 -494045 -569895 
2270.445 -673126 -785295 -885233 -952849 -972157 -935690 -847966 -725426 
2274.303 -593588 -477960 -398055 -360613 -359057 -376537 -395142 -403418 
2278.160 -400174 -394579 -401134 -432448 -492126 -574693 -666774 -754799 
2282.018 -829943 -892706 -950271 -1013976 -1090859 -1181442 -1275739 
2285.393 -1359381 -1415430 -1431216 -1402516 -1332989 -1232591 -1113895 
2288.768 -988455 -864302 -745505 -634252 -532468 -443603 -374551 -333333 
2292.625 -328068 -363791 -440161 -550338 -680470 -813242 -928615 -1009678 
2296.483 -1045147 -1031925 -975364 -887284 -784303 -683282 -598849 -541403 
2300.340 -515921 -521084 -550669 -595705 -644442 -685697 -710441 -713650 
2304.198 -694629 -658338 -613176 -568704 -534057 -514763 -512645 -524956 
2308.055 -547261 -573602 -599047 -620256 -635410 -643979 -646990 -645799 
2311.913 -643450 -643152 -649107 -664657 -691883 -729363 -772693 -814697 
2315.770 -847205 -862681 -857523 -830935 -786221 -729065 -666046 -601529 
2319.627 -537896 -473359 -403981 -325122 -234260 -132780 -28063 68062 142102 
2323.967 181513 178894 134279 55039 -45987 -151992 -246049 -316248 -355746 
2328.307 -365215 -351608 -325519 -297938 -276382 -264428 -259660 -256414 
2332.164 -246414 -222140 -177992 -111978 -25413 75817 183700 288892 381838 
2336.504 454870 504294 528942 530932 514113 483661 444223 400145 355673 
2340.843 313627 274933 238232 198451 148863 82975 -3247 -107771 -222206 
2345.183 -333498 -428145 -497024 -538293 -556030 -557652 -550405 -538458 
2349.040 -522639 -500929 -470877 -431091 -384350 -336842 -297739 -274561 
2352.898 -269561 -276978 -284296 -278038 -247805 -191207 -115688 -34027 
2356.755 40723 99214 138356 159967 166696 157481 129639 77474 -563 -99490 
2361.577 -206276 -304362 -377464 -415004 -417122 -391931 -352005 -308765 
2365.434 -267408 -226643 -182132 -130859 -75174 -25876 265 -12888 -75439 
2369.774 -186802 -333134 -489809 -626146 -715668 -740179 -696184 -595606 
2373.631 -463794 -332339 -231346 -183954 -199156 -271779 -383787 -511553 
2377.489 -630546 -721655 -776828 -796771 -790256 -769617 -746596 -728536 
2381.346 -718149 -713849 -711533 -707100 -697540 -682025 -661712 -638917 
2385.204 -616617 -598021 -586076 -583396 -591437 -610893 -639909 -674879 
2389.061 -711136 -742925 -765384 -776497 -776232 -767104 -753311 -739551 
2392.918 -730157 -728172 -735052 -750499 -772925 -799351 -825610 -847668 
2396.776 -862119 -866980 -863012 -853092 -841087 -831067 -824982 -821510 
2400.633 -816913 -806363 -785096 -751558 -707597 -658966 -613010 -577440 
2404.491 -557751 -556295 -571848 -600040 -634351 -668527 -696713 -715470 
2408.348 -724666 -727411 -728900 -735714 -753509 -783806 -824254 -868138 
2412.206 -906759 -931656 -938269 -926565 -901072 -868435 -834473 -802228 
2416.063 -771734 -740444 -707100 -673027 -643416 -625120 -624690 -643979 
2419.920 -679345 -721358 -758206 -779771 -780631 -762241 -731017 -696812 
2423.778 -668990 -653342 -652250 -664954 -688741 -720696 -759099 -803154 
2427.635 -852364 -906858 -966041 -1028884 -1094098 -1159071 -1220630 
2431.010 -1274550 -1316538 -1342997 -1353270 -1349604 -1336457 -1319940 
2434.386 -1304976 -1292621 -1280959 -1265234 -1241049 -1206158 -1162706 
2437.761 -1115911 -1073705 -1042932 -1027066 -1026405 -1038173 -1058170 
2441.136 -1081571 -1105203 -1125660 -1139705 -1144464 -1137921 -1120901 
2444.511 -1097932 -1076911 -1066004 -1071094 -1092148 -1122355 -1149884 
2447.887 -1161648 -1149355 -1111713 -1055625 -992422 -934731 -890921 -863541 
2451.744 -849950 -846213 -849355 -860069 -881497 -917241 -967429 -1028157 
2455.602 -1091487 -1147769 -1190166 -1215212 -1223307 -1217227 -1198625 
2458.977 -1167960 -1123611 -1065806 -997447 -926763 -865492 -824321 -809934 
2462.834 -821245 -849355 -880273 -901436 -904808 -890491 -865327 -840128 
2466.692 -825743 -828818 -850545 -887614 -934665 -985645 -1035098 -1079192 
2470.549 -1114159 -1136368 -1143175 -1133294 -1107946 -1071689 -1030900 
2473.924 -992587 -962834 -946138 -944286 -957775 -985645 -1025744 -1073308 
2477.782 -1121066 -1158509 -1173115 -1154477 -1096015 -999331 -874586 
2481.157 -739253 -614731 -519529 -467501 -463000 -501790 -571947 -658503 
2485.014 -745902 -821840 -878521 -914364 -932748 -940187 -944782 -953147 
2488.872 -968190 -988224 -1007695 -1018571 -1013381 -988554 -945344 -890689 
2492.729 -834374 -786585 -755097 -742660 -747820 -765284 -789264 -813605 
2496.587 -834705 -850711 -861888 -869560 -876438 -885994 -902064 -927788 
2500.444 -965247 -1012620 -1064517 -1111879 -1144167 -1151338 -1128601 
2503.819 -1077110 -1005811 -927656 -857622 -807652 -783377 -781921 -793663 
2507.677 -805602 -804676 -783310 -741635 -688277 -636899 -602819 -597757 
2511.534 -625021 -679279 -747456 -813142 -861293 -883018 -878157 -854778 
2515.392 -825544 -803485 -798690 -815325 -851339 -900146 -954668 -1007232 
2519.249 -1052121 -1085141 -1102724 -1101303 -1078365 -1032818 -966504 
2522.624 -885432 -798987 -717851 -651688 -605863 -579822 -567347 -558611 
2526.482 -543323 -513902 -468395 -410469 -349820 -298170 -266746 -264329 
2530.339 -293799 -352734 -433210 -524956 -616154 -696151 -757809 -797135 
2534.197 -814267 -813440 -800740 -783377 -768294 -760389 -761315 -769584 
2538.054 -780367 -787875 -786320 -772528 -747059 -714742 -683050 -659165 
2541.911 -648545 -651886 -665550 -681959 -693240 -692115 -674118 -638454 
2545.769 -587168 -523963 -453401 -381139 -313666 -258766 -225816 -222471 
2549.626 -253964 -319923 -413713 -522077 -628528 -717487 -776861 -801203 
2553.484 -791810 -755825 -703991 -646990 -595540 -556924 -535910 -533395 
2557.341 -546996 -570921 -596566 -615194 -618900 -603448 -569895 -523599 
2561.198 -472532 -424206 -384284 -353197 -328267 -304825 -278965 -248897 
2565.056 -216245 -183755 -154973 -131787 -113634 -98098 -82363 -63943 -41879 
2569.396 -17196 9145 35322 60208 82180 99148 107897 104517 86488 52885 6428 
2574.699 -47047 -99953 -144374 -174746 -188359 -186074 -170143 -143844 
2578.557 -109792 -69509 -24916 21140 63853 96961 114460 112504 91890 58220 
2583.379 22067 -3942 -9310 12060 59612 125331 195766 256566 295589 306100 
2588.200 289091 252422 208894 171336 150951 153338 177701 218176 265617 
2592.540 311107 347052 369303 376764 371060 354612 330936 303680 276459 
2596.880 253449 238929 235779 245559 267275 297778 331798 364428 391091 
2601.219 409464 419513 422001 418585 409796 395568 375338 348909 317971 
2605.559 285875 258157 241713 242841 265948 312599 380048 461537 546890 
2609.898 624495 683098 714460 714891 686582 636805 576085 516535 467607 
2614.238 434770 419480 419381 430757 450359 476928 510696 552132 600837 
2618.578 653430 704138 746222 773705 783896 778352 762719 743634 727370 
2622.917 717281 712303 708884 702413 690067 671649 651273 634250 626453 
2627.257 631297 648121 672611 698695 719372 729860 728864 718708 704171 
2631.596 691096 684193 686151 696339 712004 729395 744530 755051 760794 
2635.936 764478 769988 781838 803248 835150 875521 919082 959361 989448 
2640.276 1004027 1001404 983138 954612 923034 896073 879837 877380 888237 
2644.615 909088 934523 959129 977825 989016 992603 991308 989149 990278 
2648.955 997983 1014389 1039597 1072181 1109816 1149548 1188619 1224370 
2652.812 1254841 1278867 1295682 1305287 1307979 1304855 1297311 1287208 
2656.670 1276374 1266505 1258629 1253511 1251418 1252448 1256768 1264909 
2660.527 1277238 1293854 1314559 1337890 1361588 1382296 1397254 1404235 
2664.385 1402672 1393997 1381232 1368701 1360126 1358431 1364713 1378174 
2668.242 1396423 1416435 1435815 1452604 1466401 1477671 1487612 1497420 
2672.099 1507860 1519531 1532233 1545700 1559267 1572103 1582378 1588165 
2675.957 1586835 1575894 1553514 1519930 1477671 1431759 1389409 1358298 
2679.814 1344471 1351318 1377775 1419260 1467398 1513214 1548859 1569276 
2683.672 1573167 1563457 1545301 1524386 1505965 1493298 1487014 1486548 
2687.529 1490338 1496922 1505201 1514510 1523787 1531235 1534394 1530238 
2691.386 1516339 1491801 1458189 1419526 1380734 1346931 1321372 1304290 
2695.244 1293156 1283685 1271722 1254974 1234239 1213571 1198885 1195695 
2699.101 1207491 1234039 1271423 1312997 1351584 1382097 1401841 1412313 
2702.959 1416966 1420789 1427770 1439738 1456261 1474878 1492333 1506398 
2706.816 1516040 1522923 1530005 1541044 1559533 1587067 1622619 1663395 
2710.674 1704974 1742364 1771840 1791836 1803314 1810102 1816357 1826406 
2714.531 1842743 1865071 1890795 1916187 1937388 1952132 1960319 1963947 
2718.388 1966111 1969340 1975198 1983486 1992872 2001860 2009915 2017971 
2722.246 2028058 2042705 2063878 2091878 2125439 2161468 2196100 2225607 
2726.103 2246556 2256215 2253284 2237164 2208522 2169393 2123441 2075164 
2729.961 2029223 1989311 1957224 1931929 1910463 1888898 1863674 1833094 
2733.818 1798423 1762824 1730754 1705872 1690271 1683219 1681423 1680026 
2737.676 1674205 1660136 1635956 1602665 1563590 1523820 1489175 1465403 
2741.533 1455762 1461247 1479334 1504968 1531501 1552417 1563557 1563390 
2745.390 1553946 1539116 1523388 1510520 1501743 1496988 1494727 1493829 
2749.248 1494295 1497321 1504369 1516439 1532266 1548859 1561694 1566749 
2753.105 1561661 1547329 1526946 1505998 1489840 1482060 1483755 1493996 
2756.963 1509822 1528409 1547362 1565751 1583343 1600769 1618229 1635689 
2760.820 1652253 1667054 1678463 1685215 1685947 1679527 1665590 1644902 
2764.677 1619659 1593752 1572535 1560797 1562958 1580483 1611877 1652818 
2768.535 1697822 1741000 1778294 1808438 1832661 1853924 1875720 1900479 
2772.392 1928668 1958888 1988212 2013577 2033184 2047233 2058551 2071635 
2776.250 2092410 2125806 2174821 2240028 2318403 2404121 2490523 2571243 
2780.107 2641710 2700552 2749533 2792816 2835870 2883131 2937803 3000289 
2783.965 3069024 3140873 3212367 3280568 3343370 3399870 3450299 3494988 
2787.822 3535506 3573055 3609705 3647527 3688995 3736249 3790794 3853737 
2791.679 3924948 4003493 4087772 4175881 4265080 4353125 4437572 4516981 
2795.537 4590610 4659396 4725279 4791473 4861196 4937565 5022294 5115823 
2799.394 5216951 5323738 5433940 5545445 5656777 5766593 5873818 5977541 
2803.252 6077123 6172191 6263682 6353478 6444201 6539281 6641381 6752254 
2807.109 6872446 7001393 7137485 7278876 7424728 7574574 7728284 7886704 
2810.967 8050244 8219418 8394198 8574050 8757831 8943584 9129348 9313229 
2814.824 9494071 9672786 9851779 10035898 10230713 10441125 10670826 
2818.199 10920015 11186142 11464136 11748401 12034418 12320284 12607156 
2821.574 12899168 13202238 13521618 13862032 14225754 14612946 15022778 
2824.950 15453802 15905809 16380237 16880502 17411694 17980590 18592974 
2828.325 19254470 19968596 20737416 21561706 22442026 23379834 24378124 
2831.700 25441914 26577600 27792520 29094242 30490042 31987846 33595996 
2835.075 35324296 37184192 39186424 41340476 43652260 46122596 48746948 
2838.451 51516800 54421224 57448132 60588120 63832148 67172480 70602552 
2841.826 74114400 77699528 81349424 85054560 88805152 92590384 96396040 
2845.201 100205616 103997624 107744984 111418440 114982280 118395312 
2848.094 121613272 124582624 127245992 129544992 131420072 132821040 
2850.987 133709328 134061816 133873272 133156552 131941648 130270216 
2853.880 128197448 125785816 123098576 120202672 117160768 114028584 
2856.773 110858008 107691776 104564816 101506840 98539416 95680616 92945784 
2860.149 90347904 87901024 85619640 83516376 81603568 79889392 78377256 
2863.524 77066112 75949872 75019272 74261680 73663592 73208776 72878848 
2866.899 72653072 72506992 72413312 72344376 72269784 72161592 71994056 
2870.274 71742584 71388304 70916448 70318184 69593752 68751880 67811264 
2873.650 66796668 65739296 64671560 63622988 62621408 61688352 60841144 
2877.025 60094052 59457468 58939552 58546452 58281312 58144808 58135940 
2880.400 58251264 58486852 58838088 59300308 59868732 60539024 61307104 
2883.775 62169064 63122004 64162612 65286844 66490068 67764472 69100944 
2887.151 70488464 71916160 73374352 74856776 76359728 77880936 79419424 
2890.526 80971848 82533208 84096592 85654512 87201272 88733448 90250656 
2893.901 91754144 93246184 94728448 96201360 97664384 99116536 100556936 
2897.276 101984952 103399720 104800184 106185368 107555336 108911888 
2900.169 110260080 111607416 112963936 114339712 115743120 117180424 
2903.063 118654928 120167624 121718552 123306704 124931800 126592752 
2905.956 128288928 130020408 131788208 133595512 135447152 137349136 
2908.849 139306256 141320944 143392224 145515120 147682240 149885712 
2911.742 152116672 154366368 156625984 158883520 161124928 163335376 
2914.635 165498160 167597664 169617296 171536288 173328896 174959280 
2917.528 176381872 177548320 178409696 178924464 179064304 178811920 
2920.421 178159936 177106416 175652832 173804448 171573856 168985808 
2923.314 166076032 162892832 159490272 155919856 152228752 148455856 
2926.207 144631264 140781952 136932112 133104952 129323528 125606704 
2929.100 121969152 118419472 114960512 111590840 108307608 105107000 
2931.993 101987088 98947728 95990976 93121512 90345208 87668920 85099744 
2935.368 82643576 80304016 78082632 75978528 73988816 72110232 70340160 
2938.744 68677512 67123784 65682552 64360544 63163848 62099176 61171208 
2942.119 60381816 59730092 59213680 58828904 58573260 58445876 58446972 
2945.494 58577244 58835432 59216412 59709260 60298168 60963172 61681976 
2948.869 62434100 63200408 63963308 64707516 65414952 66064732 66634400 
2952.245 67099044 67436184 67629760 67670528 67558024 67298704 66903180 
2955.620 66383420 65751976 65021448 64203100 63309148 62349944 61333396 
2958.995 60264516 59144608 57972068 56745248 55464128 54131452 52752076 
2962.370 51331576 49874224 48381520 46853508 45289556 43692048 42068376 
2965.746 40431408 38798444 37188164 35619048 34104784 32654218 31271074 
2969.121 29954196 28699486 27501126 26352534 25248128 24183132 23154392 
2972.496 22160824 21202924 20282092 19400140 18558634 17758658 17000600 
2975.871 16285075 15612696 14984466 14401496 13863435 13368237 12912036 
2979.247 12488606 12091413 11714427 11352495 11003030 10664612 10337280 
2982.622 10021080 9716053 9422280 9140041 8870599 8616093 8378457 8159080 
2986.479 7957363 7770244 7592580 7418526 7242117 7058875 6867329 6667927 
2990.337 6462966 6256387 6052965 5857261 5674199 5507524 5359362 5229326 
2994.194 5113744 5006607 4900032 4787118 4664085 4530775 4392016 4254707 
2998.052 4126807 4012857 3913513 3824019 3736951 3643417 3536308 3413061 
3001.909 3275360 3129292 2982173 2842507 2716156 2606708 2515317 2440939 
3005.766 2381632 2334659 2296884 2264675 2234066 2201395 2163166 2118014 
3009.624 2065676 2008118 1948604 1890196 1834890 1783352 1734048 1684949 
3013.481 1634160 1580949 1526181 1471188 1417432 1364846 1312365 1257167 
3017.339 1197124 1131741 1063412 997153 939836 897998 875089 870541 879106 
3021.678 893450 905137 908192 900522 883788 862340 840761 822004 806435 
3026.018 791497 773374 748878 716650 678053 636706 597121 563246 537601 
3030.357 520881 512156 509734 512189 518260 527217 538330 550307 560724 
3034.697 566298 563710 549975 523667 484789 435334 378489 318070 258456 
3039.037 203457 156520 119630 94077 79296 73828 75220 80291 86521 92122 
3043.858 96596 100838 106472 115487 128711 145515 163646 179855 190164 
3048.198 191689 182640 163282 134710 99015 58618 15970 -27069 -68449 -105916 
3053.020 -137848 -162955 -181172 -193956 -203726 -213198 -224623 -238433 
3056.877 -253666 -267905 -278965 -285124 -286713 -285223 -282673 -281018 
3060.735 -281084 -282442 -284230 -285488 -286150 -287342 -290355 -296183 
3064.592 -304064 -311911 -316943 -316248 -309328 -297905 -285753 -278303 
3068.449 -280256 -294263 -320354 -355515 -394579 -431522 -461345 -480641 
3072.307 -488187 -485672 -476140 -464191 -453897 -448370 -448469 -453136 
3076.164 -459326 -462702 -459756 -448469 -428874 -403583 -376901 -353363 
3080.022 -337107 -331578 -338464 -358693 -392096 -437612 -492655 -553052 
3083.879 -613209 -666774 -708589 -735714 -748548 -750665 -747820 -745505 
3087.737 -747456 -754237 -763465 -771436 -774711 -771139 -761613 -748713 
3091.594 -735218 -723772 -715006 -707663 -700517 -692479 -684043 -677261 
3095.451 -675408 -680569 -693339 -712162 -732902 -750731 -761150 -762175 
3099.309 -753873 -739187 -723475 -711897 -708655 -716230 -734060 -759397 
3103.166 -787875 -815424 -838607 -854844 -863574 -864864 -859275 -847503 
3107.024 -830339 -809273 -786056 -764358 -748085 -741006 -746266 -764425 
3110.881 -793663 -829149 -865955 -898129 -921076 -932648 -932351 -921539 
3114.739 -902626 -877893 -849156 -817905 -784964 -751227 -718017 -687517 
3118.596 -661547 -642887 -633425 -634119 -644045 -660455 -679445 -696250 
3122.453 -707200 -710872 -708291 -703065 -699657 -702436 -713749 -733134 
3126.311 -758173 -784832 -808248 -825180 -833415 -832324 -822204 -804345 
3130.168 -780863 -754336 -728966 -708953 -697838 -697639 -707365 -723309 
3134.026 -740080 -752782 -758305 -756619 -750731 -744678 -742296 -745769 
3137.883 -754138 -764987 -775472 -782913 -786056 -784832 -779771 -770709 
3141.740 -758107 -742230 -724765 -708589 -697672 -695191 -702072 -717024 
3145.598 -735978 -754270 -768691 -779341 -789793 -805403 -830935 -868535 
3149.455 -915720 -966074 -1011595 -1045378 -1062930 -1063955 -1050799 
3152.831 -1026934 -995794 -959197 -918563 -874685 -829513 -785559 -745439 
3156.688 -711732 -685598 -666939 -654831 -648578 -647585 -652052 -661712 
3160.545 -675772 -692413 -709251 -724666 -737732 -749276 -760885 -773884 
3164.403 -787676 -800178 -808082 -808843 -801666 -788801 -774347 -763995 
3168.260 -760422 -764788 -774380 -784666 -790653 -788801 -778217 -759827 
3172.118 -736309 -710309 -684142 -660686 -641597 -629090 -624855 -629090 
3175.975 -639843 -653970 -665848 -671802 -669685 -661514 -651985 -647651 
3179.833 -654434 -674945 -708787 -751095 -796044 -836358 -866683 -883018 
3183.690 -884175 -871015 -847007 -817706 -790454 -772892 -771866 -790620 
3187.547 -828124 -877893 -930698 -974769 -1000786 -1003893 -984422 -947328 
3191.405 -901502 -855936 -818302 -793199 -782616 -785659 -799814 -821476 
3195.262 -846412 -870915 -892210 -908975 -922333 -933772 -946336 -961478 
3199.120 -979265 -997480 -1013348 -1024355 -1029776 -1031661 -1033545 
3202.495 -1039329 -1051130 -1068285 -1087157 -1102955 -1111482 -1111515 
3205.870 -1104509 -1094362 -1085372 -1080084 -1079027 -1080679 -1083522 
3209.245 -1086100 -1089768 -1096709 -1109037 -1127379 -1149322 -1170339 
3212.621 -1185606 -1191289 -1186993 -1175957 -1163301 -1154444 -1152065 
3215.996 -1154841 -1158674 -1157617 -1146315 -1122091 -1086529 -1045015 
3219.371 -1003992 -971099 -951824 -948155 -959759 -984058 -1017215 -1055030 
3223.229 -1094263 -1131906 -1165878 -1194692 -1217227 -1232657 -1241314 
3226.604 -1243329 -1240124 -1233153 -1224595 -1216236 -1209198 -1203944 
3229.979 -1199649 -1195155 -1188910 -1180385 -1170009 -1159533 -1151635 
3233.354 -1148859 -1153023 -1163928 -1179790 -1196675 -1210850 -1218450 
3236.729 -1217789 -1209429 -1196212 -1182169 -1172024 -1169612 -1177080 
3240.105 -1194329 -1219573 -1249573 -1280464 -1308279 -1330148 -1343361 
3243.480 -1346168 -1338208 -1319874 -1292621 -1260212 -1227007 -1198063 
3246.855 -1178898 -1173082 -1181739 -1203217 -1232756 -1263417 -1287732 
3250.230 -1299955 -1297279 -1280926 -1255454 -1228065 -1205960 -1195122 
3253.606 -1198162 -1213659 -1237646 -1263516 -1284824 -1297114 -1298270 
3256.981 -1289119 -1273163 -1255355 -1240190 -1231303 -1230840 -1239034 
3260.356 -1254430 -1274715 -1296982 -1317628 -1333352 -1340784 -1337481 
3263.731 -1322451 -1297378 -1266555 -1236325 -1214254 -1206621 -1215674 
3267.107 -1239199 -1270553 -1300748 -1320403 -1323871 -1310955 -1286641 
3270.482 -1259221 -1238439 -1231203 -1239563 -1260773 -1287831 -1312673 
3273.857 -1328826 -1332592 -1324598 -1308676 -1289945 -1273063 -1261566 
3277.232 -1256809 -1258263 -1264176 -1272337 -1280034 -1284990 -1285188 
3280.608 -1278911 -1265597 -1246071 -1222415 -1197997 -1176882 -1163267 
3283.983 -1159897 -1168224 -1187819 -1216071 -1249111 -1282875 -1313994 
3287.358 -1340256 -1361131 -1377547 -1390758 -1401625 -1409320 -1411269 
3290.733 -1403606 -1382600 -1345739 -1294339 -1232327 -1167596 -1108309 
3294.109 -1062566 -1034735 -1026570 -1034867 -1054700 -1079555 -1103088 
3297.484 -1121529 -1133195 -1138846 -1140994 -1143671 -1150280 -1162739 
3300.859 -1181938 -1206423 -1234210 -1262591 -1289681 -1315018 -1339100 
3304.234 -1362981 -1386828 -1409023 -1426130 -1432537 -1423719 -1396637 
3307.610 -1353072 -1298468 -1241644 -1192280 -1157617 -1141358 -1141920 
3310.985 -1154543 -1172817 -1190628 -1204473 -1213064 -1217359 -1218978 
3314.360 -1219540 -1219441 -1218516 -1216071 -1212007 -1206423 -1200475 
3317.735 -1195585 -1193767 -1197072 -1206885 -1224166 -1248285 -1276995 
3321.111 -1306264 -1330841 -1346367 -1349306 -1339595 -1319940 -1295726 
3324.486 -1271742 -1252316 -1238704 -1229750 -1222415 -1214617 -1205696 
3327.861 -1197997 -1195056 -1200706 -1216798 -1242602 -1274253 -1306628 
3331.236 -1335003 -1356078 -1368761 -1373881 -1373055 -1367176 -1356837 
3334.612 -1341808 -1321955 -1298303 -1273394 -1250003 -1231038 -1218813 
3337.987 -1213064 -1212667 -1215079 -1217921 -1219011 -1217227 -1212304 
3341.362 -1204870 -1195981 -1187522 -1180913 -1177873 -1179096 -1184317 
3344.737 -1192479 -1201631 -1210024 -1216732 -1222282 -1228527 -1237382 
3348.113 -1250135 -1266357 -1283338 -1297741 -1306198 -1307652 -1303886 
3351.488 -1298832 -1297213 -1302631 -1315481 -1332361 -1347721 -1354988 
3354.863 -1349207 -1329553 -1299228 -1264870 -1234210 -1214419 -1209991 
3358.238 -1221919 -1247657 -1282875 -1321229 -1356540 -1383459 -1398487 
3361.614 -1400568 -1391716 -1376457 -1360669 -1349835 -1347490 -1353832 
3364.989 -1365722 -1377382 -1382733 -1377943 -1362155 -1338934 -1314358 
3368.364 -1294603 -1283602 -1282215 -1287269 -1294372 -1298765 -1298501 
3371.739 -1293876 -1288293 -1285419 -1288491 -1298369 -1313499 -1330709 
3375.115 -1346862 -1360239 -1370148 -1377382 -1382600 -1384979 -1383096 
3378.490 -1374343 -1357036 -1331965 -1302895 -1276466 -1259452 -1257998 
3381.865 -1274517 -1307090 -1349570 -1393368 -1430225 -1453540 -1460244 
3385.240 -1450899 -1428937 -1399115 -1365888 -1333187 -1304183 -1280959 
3388.615 -1264771 -1256644 -1256644 -1264077 -1277160 -1292885 -1308742 
3391.991 -1321856 -1330610 -1335367 -1336919 -1337481 -1338406 -1340751 
3395.366 -1343988 -1347027 -1348315 -1346069 -1339760 -1329652 -1317298 
3398.741 -1305108 -1295528 -1290507 -1291564 -1299096 -1312508 -1330709 
3402.116 -1352609 -1376028 -1399148 -1419756 -1434981 -1441784 -1437755 
3405.492 -1420846 -1390957 -1350495 -1304514 -1260212 -1225223 -1206522 
3408.867 -1207777 -1229452 -1267711 -1315910 -1365822 -1409782 -1442444 
3412.242 -1461136 -1466551 -1461499 -1449842 -1435542 -1421341 -1409386 
3415.617 -1400601 -1396109 -1396902 -1404366 -1419855 -1443072 -1473255 
3418.993 -1507167 -1539657 -1565673 -1580100 -1580728 -1567819 -1545170 
3422.368 -1517304 -1489567 -1466122 -1448653 -1437194 -1430622 -1427451 
3425.743 -1426659 -1428376 -1433594 -1443600 -1458692 -1478505 -1500695 
3429.118 -1522256 -1539855 -1550387 -1551377 -1541770 -1521794 -1493233 
3432.494 -1459121 -1423818 -1392080 -1368827 -1357366 -1359480 -1373881 
3435.869 -1397463 -1425371 -1451757 -1471967 -1483227 -1484713 -1477383 
3439.244 -1464174 -1448323 -1432339 -1419129 -1410608 -1407933 -1412061 
3442.619 -1422795 -1439142 -1459319 -1481312 -1501950 -1518393 -1527804 
3445.995 -1527903 -1517106 -1495973 -1466948 -1434089 -1402549 -1377283 
3449.370 -1361858 -1357762 -1363741 -1376391 -1390692 -1401691 -1406579 
3452.745 -1405654 -1402615 -1402913 -1412325 -1434816 -1469655 -1511889 
3456.120 -1553854 -1585317 -1597366 -1585251 -1548670 -1491978 -1423521 
3459.496 -1353798 -1293216 -1250267 -1230444 -1235036 -1261335 -1303456 
3462.871 -1353832 -1404795 -1449842 -1484779 -1508224 -1520573 -1523610 
3466.246 -1520011 -1512351 -1502346 -1491383 -1480487 -1469854 -1459319 
3469.621 -1448686 -1437028 -1423455 -1407206 -1388380 -1367935 -1347952 
3472.997 -1331997 -1323640 -1326019 -1340883 -1366945 -1401129 -1437293 
3476.372 -1468731 -1489402 -1494983 -1484911 -1461433 -1430159 -1397397 
3479.747 -1370049 -1352808 -1347357 -1352510 -1365359 -1381775 -1398586 
3483.122 -1414439 -1429433 -1443501 -1456281 -1466023 -1469854 -1464966 
3486.498 -1449478 -1423884 -1391683 -1357828 -1328397 -1308180 -1300946 
3489.873 -1308081 -1329421 -1363245 -1406480 -1454729 -1502610 -1544213 
3493.248 -1573696 -1587627 -1584986 -1568744 -1544246 -1518129 -1495742 
3496.623 -1479595 -1468302 -1458494 -1446473 -1429499 -1407933 -1383922 
3499.999 -1361131 -1342436 -1329784 -1322814 -1320040 -1319379 -1320040 
3503.374 -1321856 -1325754 -1332328 -1341511 -1352543 -1364732 -1378373 
3506.749 -1394656 -1415760 -1443600 -1479034 -1520374 -1563659 -1604101 
3510.124 -1636847 -1659590 -1671440 -1673420 -1667017 -1653814 -1635395 
3513.500 -1613773 -1591952 -1573696 -1562405 -1559929 -1564815 -1572375 
3516.875 -1576601 -1570757 -1551675 -1520936 -1484911 -1452616 -1432702 
3520.250 -1430589 -1446671 -1476194 -1510502 -1540779 -1560094 -1565904 
3523.625 -1560919 -1551609 -1545633 -1549727 -1568116 -1602120 -1650150 
3527.000 -1708010 -1769690 -1827996 -1875901 -1908298 -1922384 -1918194 
3530.376 -1898104 -1865938 -1825884 -1781866 -1737811 -1696986 -1662726 
3533.751 -1638135 -1625888 -1627241 -1641072 -1663551 -1688141 -1707548 
3537.126 -1716195 -1712135 -1697481 -1677282 -1658798 -1647608 -1647938 
3540.501 -1660613 -1684015 -1714214 -1746161 -1775399 -1798002 -1811399 
3543.877 -1813907 -1805294 -1786090 -1757447 -1721112 -1679229 -1633579 
3547.252 -1586505 -1540647 -1499473 -1466915 -1447266 -1444195 -1460343 
3550.627 -1495247 -1545270 -1603209 -1659986 -1706524 -1738108 -1754477 
3554.002 -1759361 -1758272 -1756259 -1756325 -1759064 -1762463 -1763585 
3557.378 -1759097 -1746524 -1724676 -1693554 -1655299 -1613740 -1572969 
3560.753 -1538534 -1514893 -1505549 -1512318 -1535728 -1574851 -1628034 
3564.128 -1692530 -1764179 -1836541 -1899490 -1940329 -1947223 -1915786 
3567.503 -1852939 -1775201 -1701475 -1645826 -1614136 -1605289 -1613641 
3570.879 -1631269 -1649490 -1662330 -1666555 -1661901 -1651074 -1637573 
3574.254 -1624105 -1612486 -1602549 -1593933 -1586637 -1581817 -1580563 
3577.629 -1584326 -1592480 -1603110 -1612750 -1618428 -1618362 -1614235 
3581.004 -1609647 -1609085 -1617338 -1636583 -1666588 -1704808 -1747316 
3584.380 -1789423 -1826808 -1855743 -1873295 -1877584 -1869534 -1853104 
3587.755 -1835221 -1822386 -1818658 -1823970 -1835320 -1847528 -1855875 
3591.130 -1856700 -1847693 -1829447 -1803975 -1775926 -1749626 -1729165 
3594.505 -1716096 -1710188 -1709363 -1711970 -1717185 -1725336 -1737613 
3597.881 -1754279 -1774574 -1796352 -1815457 -1827105 -1828259 -1816843 
3601.256 -1794735 -1765697 -1736161 -1712135 -1698768 -1699197 -1713785 
3604.631 -1740814 -1775860 -1812587 -1843602 -1861913 -1862639 -1845845 
3608.006 -1816975 -1784902 -1759922 -1748537 -1751936 -1767017 -1787575 
3611.382 -1805987 -1814896 -1808297 -1783285 -1740814 -1685665 -1624964 
3614.757 -1564683 -1509280 -1461763 -1424083 -1399412 -1390692 -1400337 
3618.132 -1428838 -1471967 -1521200 -1566168 -1598819 -1616150 -1619649 
3621.507 -1613839 -1602450 -1588981 -1574521 -1559103 -1542760 -1525888 
3624.883 -1510700 -1501025 -1501521 -1516709 -1548901 -1595947 -1647872 
3628.258 -1686359 -1693785 -1664904 -1612222 -1557518 -1517304 -1498582 
3631.633 -1501620 -1521761 -1552302 -1584029 -1608788 -1621200 -1620342 
3635.008 -1609647 -1595319 -1583567 -1579176 -1584392 -1599479 -1622653 
3638.384 -1651239 -1681804 -1711838 -1738966 -1760912 -1775663 -1780876 
3641.759 -1775102 -1758602 -1734115 -1706161 -1681408 -1667050 -1669855 
3645.134 -1695699 -1749428 -1832681 -1943033 -2072023 -2204996 -2321615 
3648.509 -2401365 -2426176 -2385976 -2283647 -2135597 -1967080 -1802952 
3651.885 -1661505 -1551774 -1475897 -1432174 -1416288 -1423092 -1445714 
3655.260 -1477118 -1511195 -1544609 -1577624 -1613047 -1651734 -1691408 
3658.635 -1725897 -1747415 -1749263 -1728208 -1687085 -1633810 -1581223 
3662.010 -1541374 -1522389 -1526285 -1548802 -1580464 -1610175 -1629717 
3665.385 -1634471 -1624568 -1604563 -1582642 -1568116 -1570955 -1599710 
3668.761 -1658699 -1743784 -1840171 -1927497 -1989706 -2022259 -2030702 
3672.136 -2023974 -2010452 -1995676 -1984264 -1979943 -1986804 -2006758 
3675.511 -2036902 -2068791 -2092072 -2100217 -2088874 -2056953 -2005307 
3678.886 -1938151 -1862441 -1787575 -1722399 -1671869 -1636583 -1614103 
3682.262 -1600799 -1594065 -1593306 -1598456 -1609647 -1625294 -1641369 
3685.637 -1652460 -1653187 -1640181 -1615127 -1585581 -1563857 -1561381 
3689.012 -1580398 -1611561 -1637144 -1643944 -1626746 -1591919 -1550948 
3692.387 -1516280 -1494355 -1485704 -1485572 -1487751 -1486628 -1481048 
3695.763 -1474444 -1473816 -1486662 -1516610 -1562041 -1616480 -1671308 
3699.138 -1717647 -1749923 -1765664 -1767149 -1758701 -1744940 -1728571 
3702.513 -1709825 -1687448 -1661439 -1634206 -1611462 -1599710 -1605883 
3705.888 -1634504 -1686457 -1757975 -1840368 -1921955 -1988750 -2026909 
3709.264 -2025623 -1980273 -1895795 -1787146 -1679196 -1596079 -1554217 
3712.639 -1556264 -1593735 -1652823 -1719957 -1785628 -1843107 -1889032 
3716.014 -1921856 -1940889 -1946035 -1937986 -1917996 -1887382 -1848254 
3719.389 -1802160 -1750616 -1695996 -1642525 -1596607 -1566994 -1562669 
3722.765 -1589179 -1646783 -1728703 -1822122 -1908990 -1971071 -1992774 
3726.140 -1966915 -1898302 -1802886 -1701508 -1612089 -1546722 -1510964 
3729.515 -1505549 -1528728 -1577558 -1648532 -1736326 -1834133 -1934193 
3732.890 -2027272 -2103811 -2154357 -2168831 -2140608 -2071462 -1975985 
3736.266 -1875473 -1790776 -1732102 -1699296 -1687382 -1689197 -1698504 
3739.641 -1709957 -1720485 -1727283 -1728274 -1720683 -1700848 -1664442 
3743.016 -1608722 -1537081 -1463348 -1409584 -1392344 -1411599 -1454630 
3746.391 -1506275 -1556792 -1600898 -1638068 -1670582 -1703125 -1740847 
3749.767 -1786816 -1837795 -1886030 -1921658 -1937591 -1934226 -1917271 
3753.142 -1894838 -1873295 -1856568 -1845680 -1840171 -1838521 -1839115 
3756.517 -1840566 -1840896 -1838521 -1831823 -1820671 -1806812 -1793911 
3759.892 -1787113 -1790116 -1803645 -1825059 -1848617 -1868214 -1878013 
3763.268 -1874285 -1857129 -1830734 -1803546 -1786816 -1788103 -1809419 
3766.643 -1845878 -1889494 -1930564 -1960516 -1973314 -1965991 -1939603 
3770.018 -1899325 -1852906 -1806845 -1765598 -1730650 -1701607 -1677282 
3773.393 -1656388 -1637970 -1621200 -1605619 -1591094 -1577459 -1565145 
3776.769 -1553689 -1543024 -1532855 -1523148 -1514827 -1510469 -1512252 
3780.144 -1522389 -1541043 -1566796 -1596871 -1628859 -1660349 -1689560 
3783.519 -1715601 -1737778 -1755929 -1770251 -1780513 -1786387 -1787839 
3786.894 -1785199 -1779127 -1770812 -1761176 -1750748 -1739164 -1726326 
3790.270 -1711937 -1696986 -1683883 -1675532 -1674641 -1682365 -1697283 
3793.645 -1715633 -1732564 -1742200 -1740814 -1728076 -1709099 -1692398 
3797.020 -1687580 -1700848 -1733653 -1782724 -1841490 -1901139 -1949499 
3800.395 -1972159 -1958306 -1907737 -1836244 -1766885 -1718670 -1698108 
3803.771 -1702168 -1722861 -1750286 -1772198 -1776421 -1753916 -1703323 
3807.146 -1634636 -1565079 -1510832 -1479925 -1472594 -1484812 -1509842 
3810.521 -1541572 -1574257 -1604233 -1629552 -1650084 -1667314 -1683454 
3813.896 -1700782 -1721046 -1744675 -1770647 -1796022 -1818031 -1834594 
3817.271 -1845713 -1852081 -1853929 -1850563 -1840302 -1820737 -1790347 
3820.647 -1751474 -1711409 -1679559 -1661537 -1657874 -1665168 -1679031 
3824.022 -1695930 -1713059 -1728901 -1742761 -1754873 -1766489 -1778665 
3827.397 -1792228 -1806449 -1819813 -1830008 -1834034 -1829084 -1813708 
3830.772 -1787938 -1754114 -1717251 -1683421 -1658303 -1646552 -1650414 
3834.148 -1669888 -1703257 -1746062 -1791634 -1831823 -1857327 -1861715 
3837.523 -1843107 -1807274 -1765301 -1731310 -1715865 -1722102 -1745765 
3840.898 -1778137 -1807736 -1823871 -1819549 -1791766 -1743850 -1684015 
3844.273 -1623577 -1572672 -1537742 -1521101 -1520969 -1533780 -1555141 
3847.649 -1581751 -1611165 -1642063 -1674707 -1709297 -1746260 -1784572 
3851.024 -1821199 -1850003 -1861154 -1843239 -1791898 -1717251 -1642162 
3854.399 -1586043 -1555405 -1546656 -1553028 -1567654 -1584788 -1600535 
3857.774 -1612122 -1617866 -1617899 -1612849 -1603870 -1593108 -1582411 
3861.150 -1573432 -1567357 -1563956 -1562207 -1560391 -1557287 -1553226 
3864.525 -1550651 -1553226 -1564485 -1586604 -1619814 -1661901 -1709000 
3867.900 -1755104 -1790710 -1804008 -1786123 -1737547 -1672001 -1608227 
3871.275 -1561942 -1538897 -1538006 -1553490 -1577426 -1601262 -1618428 
3874.651 -1627043 -1630443 -1634735 -1644901 -1663650 -1690055 -1720188 
3878.026 -1747415 -1764377 -1765202 -1748174 -1718934 -1688966 -1671143 
3881.401 -1672364 -1691111 -1718901 -1745204 -1758338 -1748075 -1709363 
3884.776 -1643647 -1563065 -1486926 -1433726 -1411070 -1416123 -1439670 
3888.152 -1471901 -1505285 -1535001 -1558476 -1576271 -1590103 -1602681 
3891.527 -1615886 -1629915 -1643284 -1654672 -1663617 -1671308 -1679592 
3894.902 -1690682 -1705996 -1725633 -1748174 -1771109 -1790974 -1804700 
3898.277 -1811036 -1810772 -1806911 -1803315 -1802061 -1803084 -1802688 
3901.653 -1795758 -1777213 -1744114 -1698108 -1645364 -1595848 -1558575 
3905.028 -1539459 -1538006 -1549463 -1566532 -1583204 -1594857 -1599248 
3908.403 -1597432 -1592117 -1587892 -1588915 -1598786 -1618956 -1648796 
3911.778 -1685368 -1724049 -1760516 -1790248 -1810310 -1818757 -1815358 
3915.154 -1800939 -1778401 -1752563 -1728175 -1709495 -1698405 -1693323 
3918.529 -1691144 -1687943 -1681309 -1670614 -1658204 -1647575 -1642096 
3921.904 -1644406 -1654738 -1671341 -1691507 -1711046 -1726623 -1736458 
3925.279 -1740616 -1740187 -1735864 -1728736 -1717647 -1701772 -1680153 
3928.655 -1653154 -1623082 -1593867 -1570922 -1559829 -1564716 -1587066 
3932.030 -1624303 -1670813 -1718373 -1758767 -1786651 -1799058 -1797045 
3935.405 -1784539 -1767479 -1752497 -1746128 -1752926 -1774178 -1807835 
3938.780 -1848155 -1888108 -1919942 -1936931 -1934952 -1913048 -1874582 
3942.156 -1826181 -1777015 -1735402 -1705996 -1688669 -1679757 -1673618 
3945.531 -1665663 -1654111 -1640709 -1630377 -1629552 -1643449 -1672529 
3948.906 -1712201 -1753388 -1785463 -1800774 -1795758 -1772627 -1737250 
3952.281 -1697844 -1660910 -1631269 -1610274 -1596706 -1587429 -1579638 
3955.656 -1570559 -1558542 -1542595 -1522851 -1500332 -1477184 -1456711 
3959.032 -1443270 -1440331 -1450304 -1472429 -1503865 -1538930 -1572210 
3962.407 -1600172 -1622554 -1641997 -1662462 -1687448 -1717383 -1749989 
3965.782 -1780051 -1801896 -1811795 -1808825 -1795527 -1777213 -1759097 
3969.157 -1744775 -1735237 -1729099 -1722927 -1713851 -1701013 -1685170 
3972.533 -1668667 -1654210 -1643746 -1636781 -1631632 -1624733 -1613047 
3975.908 -1594857 -1569932 -1540020 -1508389 -1478736 -1453970 -1436038 
3979.283 -1425800 -1422266 -1424083 -1429499 -1437128 -1445912 -1455357 
3982.658 -1465297 -1476194 -1488841 -1503964 -1522752 -1546359 -1576139 
3986.034 -1611990 -1652790 -1695534 -1735237 -1766588 -1783615 -1782262 
3989.409 -1761572 -1723884 -1673915 -1619055 -1565904 -1519846 -1484053 
3992.784 -1459881 -1447002 -1444195 -1449941 -1463150 -1481675 -1503139 
3996.159 -1525261 -1544972 -1560226 -1570031 -1574719 -1576139 -1576634 
3999.535 -1578549 -1583402 -1591193 
##END=
