##TITLE=ab_2 Sep 02 11:47:58 2026 (GMT+02:00)
##JCAMP-DX=5.01  $$ Nicolet v. 970
##DATATYPE=INFRARED SPECTRUM
##ORIGIN=Vojna akademija
##OWNER=Nicolet
##LONGDATE=2026/09/02
##TIME=11:48:30
##SPECTROMETER/DATA SYSTEM=Nicolet iS20
##DATA PROCESSING=
Ratio against background
%Transmittance->Absorbance
Truncated
ElementMultiply or ElementDivide
##COMMENTS=
Number of sample scans: 8
Collection length: 11,90 sec
Sample gain: 8,0
Background collected on: Wed Sep 02 11:45:00 2026 (GMT+02:00);
Number of background scans: 8
Background gain: 8,0
Sample spacing:  1,000
Number of scan points: 12415
Resolution points: 8286
Number of FFT points: 65536
Apodization: N-B strong;
Phase correction: Mertz;
Laser frequency: 15798,00 cm-1
Number of rejected sample scans: 0
Number of rejected background scans: 0
Bench serial number: BER2010005;
##RESOLUTION= 4,000
##XUNITS=1/CM
##YUNITS=ABSORBANCE
##FIRSTX=400.156891
##LASTX=4000.123047
##FIRSTY=-0.005794
##MAXX=4000.123047
##MINX=400.156891
##MAXY=0.193413
##MINY=-0.008075
##XFACTOR=1.000000
##YFACTOR=1.000000E-009
##NPOINTS=7468
##DELTAX=0.482117
##ZPD=6100
##XYDATA=(X++(Y..Y))
400.157 -5794354 -7473421 -8074614 -7595374 -6280387 -4546594 -2816979 
403.532 -1454069 -658238 -463264 -776299 -1423455 -2221314 -3014453 -3703394 
407.389 -4218580 -4492784 -4455857 -4042334 -3234333 -2081883 -711235 717414 
411.246 2061181 3205391 4089244 4698817 5060474 5233383 5314346 5413642 
415.103 5632072 6050512 6699017 7542578 8445886 9178314 9471957 9183898 
418.959 8481598 7817000 7637023 8077889 8989146 10056617 10957698 11395862 
422.816 11180635 10275223 8823426 7125224 5535276 4359985 3744169 3677467 
426.673 4035296 4648378 5334606 5940724 6366658 6562726 6538339 6349410 
430.530 6087136 5847655 5703037 5676281 5732077 5791072 5762262 5589746 
434.387 5268899 4858147 4453774 4156679 4018241 4021251 4090515 4142830 
438.244 4131758 4068073 4010649 4045062 4240018 4612846 5112303 5625526 
442.101 6017552 6165973 6010497 5563635 4897686 4106771 3281803 2504220 
445.958 1836887 1335763 1039464 955177 1050359 1261885 1522856 1787477 
449.815 2054290 2364441 2788081 3383908 4159858 5042238 5894070 6552770 
453.672 6900757 6907894 6631119 6190071 5722375 5361643 5197468 5252566 
457.529 5474203 5763202 6010699 6142650 6137777 6002031 5753197 5410757 
461.386 5004797 4582206 4208869 3957949 3878275 3975203 4201174 4472655 
465.243 4691282 4770937 4671051 4409990 4067236 3752391 3580338 3624238 
469.100 3899638 4364470 4936761 5510611 5977676 6260892 6332162 6232118 
472.957 6053401 5913853 5904348 6054342 6329539 6647302 6905134 7000147 
476.813 6868003 6500096 5951608 5320887 4719518 4237308 3915987 3756569 
480.670 3730501 3800287 3935212 4123830 4371800 4690980 5085147 5533967 
484.527 5986040 6372072 6614735 6656083 6478840 6106424 5600319 5042640 
488.384 4527427 4131591 3897198 3818838 3843842 3887770 3861158 3708177 
492.241 3423514 3059480 2699752 2434642 2316937 2347718 2481493 2647977 
496.098 2775709 2816093 2759003 2629576 2476894 2347718 2278198 2285326 
499.955 2371471 2532614 2765071 3064385 3423313 3823652 4234531 4614051 
503.812 4920541 5117365 5179394 5095573 4865016 4499705 4021217 3468701 
507.669 2898341 2378467 1987879 1794298 1843342 2142388 2652678 3283205 
511.526 3904921 4390175 4634747 4597006 4304365 3843809 3330148 2876727 
515.383 2573643 2459399 2520350 2699185 2924426 3133264 3291251 3393993 
519.240 3456544 3495990 3519773 3524416 3501434 3444921 3359798 3260671 
523.097 3169009 3105864 3082138 3095653 3130660 3165003 3176285 3151753 
526.954 3091448 3007262 2917655 2842641 2802520 2813025 2886133 3025045 
530.811 3221480 3453906 3691802 3903851 4063123 4156378 4183476 4155877 
534.667 4090482 4004128 3912309 3828064 3766629 3747812 3793168 3919263 
538.524 4126673 4392920 4668674 4891454 5003020 4965080 4775460 4469542 
542.381 4110651 3762451 3476350 3272522 3140239 3049470 2967360 2875160 
546.238 2773775 2683416 2632176 2646944 2742264 2919389 3167707 3468234 
550.095 3793970 4112691 4391113 4594394 4694932 4678721 4550630 4337194 
553.952 4084093 3848656 3680474 3612344 3650701 3777625 3957247 4148383 
557.809 4318186 4445707 4527393 4570352 4586291 4583947 4563153 4516010 
561.666 4433355 4310321 4156345 3996471 3871622 3827162 3898802 4099680 
565.523 4409522 4777068 5125009 5376906 5474572 5393412 5150156 4794890 
569.380 4396568 4017438 3707943 3496257 3393325 3400671 3514495 3726390 
573.237 4019010 4364270 4722130 5045322 5293517 5440348 5483162 5439912 
577.094 5341046 5214101 5073582 4922417 4758174 4583846 4415680 4280974 
580.951 4209940 4222252 4315207 4461909 4618472 4738041 4776666 4706019 
584.808 4515474 4211244 3814192 3356393 2881163 2436108 2069971 1823178 
588.665 1715186 1739437 1864872 2050428 2255582 2459399 2664546 2890236 
592.521 3153622 3453772 3759944 4021719 4181234 4194081 4046400 3758708 
596.378 3377730 2958286 2552145 2194702 1907668 1708500 1613473 1634492 
600.235 1769212 1990409 2241027 2447470 2547479 2509019 2351515 2139690 
604.092 1968973 1920813 2030454 2267173 2545346 2750099 2781278 2596875 
607.949 2226540 1767948 1343939 1075237 1034516 1228922 1602432 2058884 
611.806 2491290 2805488 2950213 2915220 2728293 2437774 2101799 1773404 
615.663 1490239 1275776 1138817 1079854 1096496 1186858 1349257 1575827 
619.520 1849099 2138425 2402489 2601475 2705220 2706187 2622509 2496988 
623.377 2380599 2316804 2329962 2416549 2547912 2680549 2774408 2801353 
627.234 2753768 2643544 2497855 2351082 2237830 2189840 2227739 2355846 
631.091 2557978 2799019 3029617 3197046 3262774 3211599 3061015 2853113 
634.948 2646277 2494222 2427378 2450436 2543213 2673247 2806956 2924393 
638.805 3019740 3098823 3173815 3254194 3343838 3441515 3541452 3637136 
642.662 3723516 3795908 3851464 3890344 3916355 3937486 3966342 4014930 
646.519 4088007 4181101 4277460 4354464 4391012 4377590 4320762 4242461 
650.375 4168589 4118244 4095633 4088809 4074828 4032889 3955174 3853403 
654.232 3756569 3699555 3713423 3813122 3992424 4226066 4480421 4720656 
658.089 4921144 5069860 5168731 5230969 5273595 5313877 5362012 5417198 
661.946 5467224 5492793 5472525 5391265 5246563 5048339 4816198 4572026 
665.803 4339503 4144570 4018341 3999949 4120218 4375884 4710005 5044887 
669.660 5325617 5528967 5653622 5705890 5695953 5639355 5557358 5472559 
673.517 5399316 5337189 5268765 5166619 5005534 4777939 4501513 4219776 
677.374 3984967 3844878 3827162 3931267 4130152 4378795 4629590 4838077 
681.231 4976207 5033690 5015825 4939341 4828661 4713053 4617969 4561546 
685.088 4548587 4567171 4590878 4586927 4525887 4390677 4185416 3933474 
688.945 3675027 3451167 3296226 3229792 3253660 3352987 3499363 3660659 
692.802 3802694 3899638 3939659 3927121 3883524 3842405 3842706 3913379 
696.659 4066467 4290712 4556188 4821157 5047065 5211787 5315185 5379054 
700.516 5436054 5521953 5659966 5855682 6098762 6368339 6639799 6894024 
704.373 7121418 7322208 7503100 7674051 7847093 8035460 8253862 8519678 
708.229 8849801 9257680 9749871 10321842 10956849 11627702 12305865 12965254 
712.086 13593064 14191655 14780651 15391558 16059814 16819292 17691182 
715.461 18680168 19773004 20944602 22161278 23389414 24603816 25785372 
718.836 26919982 27992852 28977552 29833334 30509238 30950970 31122828 
722.211 31016944 30660544 30105310 29418510 28664940 27891544 27129364 
725.586 26391862 25680112 24991708 24323034 23672148 23037854 22418894 
728.961 21814298 21223172 20644214 20076608 19518686 18969926 18431570 
732.335 17910834 17420972 16983098 16619023 16345315 16166756 16070884 
735.710 16029490 16002811 15951797 15842469 15654704 15385379 15044661 
739.085 14652424 14233492 13816332 13427765 13091549 12824150 12630352 
742.460 12500814 12413591 12342578 12261078 12152470 12013196 11851255 
745.835 11679776 11510746 11349401 11193554 11038546 10883015 10732906 
749.209 10602100 10506160 10453853 10441736 10452631 10461219 10440956 
752.584 10375964 10267250 10132921 10001414 9903606 9864117 9893945 9988530 
756.441 10129089 10288794 10435525 10540242 10583324 10556979 10468245 
759.816 10337722 10195467 10070147 9982156 9936557 9922488 9919200 9906013 
763.673 9872387 9822698 9774812 9750108 9764374 9817785 9892928 9959644 
767.530 9987988 9957474 9864930 9724423 9561402 9401930 9264518 9157739 
771.387 9079914 9024666 8984377 8952986 8926199 8898736 8863362 8811422 
775.244 8734334 8628666 8497580 8351197 8202636 8066548 7952166 7863726 
779.101 7799120 7752164 7714219 7675535 7626940 7557749 7458064 7320827 
782.958 7143143 6930652 6696729 6463067 6252892 6086565 5976735 5923560 
786.815 5914894 5929203 5942639 5934107 5891182 5813268 5709684 5597398 
790.671 5493397 5412736 5363354 5345843 5354431 5381335 5418003 5456588 
794.528 5491685 5518296 5531987 5530310 5512792 5481149 5440818 5398981 
798.385 5362012 5334203 5315621 5303546 5295328 5291236 5295194 5314346 
802.242 5355269 5418607 5497256 5576892 5639825 5671447 5666445 5630628 
806.099 5580147 5534807 5511920 5521416 5563635 5631199 5713209 5799131 
809.956 5879662 5946973 5994708 6015906 6005189 5961349 5889502 5802085 
813.813 5717205 5654897 5629487 5649124 5712672 5813201 5939012 6078702 
817.670 6220388 6350687 6456374 6522597 6535110 6486340 6376947 6219009 
821.527 6032436 5842618 5671883 5536216 5444139 5397941 5397572 5441455 
825.384 5527054 5649191 5797082 5955706 6107029 6235278 6331624 6396348 
829.241 6437441 6465959 6491015 6515467 6535009 6542073 6530401 6497977 
833.098 6448000 6386631 6318075 6243177 6159588 6065430 5963533 5864111 
836.955 5782878 5734495 5726135 5751585 5793926 5829622 5839025 5815249 
840.812 5767768 5719588 5696423 5719991 5797351 5920705 6070839 6227311 
844.669 6373854 6504166 6620017 6725164 6818286 6889614 6920216 6888167 
848.525 6778436 6588629 6333540 6043490 5759408 5519470 5354230 5277451 
852.382 5284663 5354732 5457628 5564105 5650231 5703607 5723449 5718010 
856.239 5699545 5679537 5666378 5662954 5668022 5677355 5686251 5689373 
860.096 5681786 5661174 5627540 5585786 5545814 5522188 5528699 5574072 
863.953 5657348 5765720 5877311 5967799 6020072 6029379 6007205 5975526 
867.810 5961450 5984999 6052393 6154211 6270640 6376745 6451330 6483683 
871.667 6473594 6428899 6360942 6279986 6192860 6103568 6014630 5928867 
875.524 5850174 5784557 5737920 5717910 5731843 5785229 5881442 6017552 
879.381 6183920 6362858 6531343 6665807 6746095 6761845 6714362 6617527 
883.238 6492696 6364775 6257531 6188323 6167788 6197397 6270304 6371971 
887.095 6482876 6584289 6662039 6711939 6740610 6763696 6796846 6850061 
890.952 6919340 6987688 7029005 7019643 6949472 6826735 6677987 6536557 
894.809 6433674 6384882 6387102 6422174 6468179 6506789 6530401 6542409 
898.666 6551054 6562693 6577864 6590950 6595492 6589436 6577864 6569488 
902.523 6572818 6588191 6606223 6610193 6583751 6520445 6429269 6333070 
906.379 6260455 6237395 6276321 6372912 6508101 6656958 6795265 6905033 
910.236 6978832 7016411 7022843 7005871 6976105 6946948 6933918 6952334 
914.093 7011730 7111752 7240196 7376633 7497369 7584015 7630346 7642688 
917.950 7636314 7626333 7622084 7622556 7617768 7595344 7547601 7476469 
921.807 7394226 7318164 7266106 7248350 7266813 7314357 7380205 7454929 
925.664 7532834 7613856 7700357 7793351 7889470 7979535 8049772 8086633 
929.521 8080590 8030836 7946024 7844630 7749736 7683291 7661842 7691352 
933.378 7766972 7875029 7999076 8122991 8234276 8326440 8395718 8441392 
937.235 8463116 8461393 8440244 8407711 8377714 8365891 8385314 8440954 
941.092 8526538 8625489 8715977 8780585 8811252 8814702 8808581 8816899 
944.949 8860521 8949334 9081538 9244750 9420959 9592024 9745873 9877031 
948.806 9986496 10080015 10166804 10256869 10359710 10481210 10619993 
952.181 10765342 10895280 10982063 10999496 10931635 10781544 10574565 
955.555 10353466 10163990 10047359 10024538 10092868 10228847 10397209 
958.930 10562208 10695514 10783887 10827062 10834569 10819453 10795334 
962.305 10774445 10765478 10775328 10807700 10862664 10936121 11020533 
965.680 11106355 11184511 11249146 11298420 11334571 11360624 11379331 
969.055 11390998 11392835 11380726 11351032 11301957 11234287 11151398 
972.429 11057511 10956917 10852948 10746424 10636054 10519534 10394528 
975.804 10260295 10120576 9983241 9860049 9762579 9698739 9668686 9663808 
979.661 9668111 9663876 9636874 9580540 9497051 9395971 9287772 9178787 
983.518 9069662 8955963 8832386 8698500 8561074 8434569 8337518 8285438 
987.375 8286789 8340321 8436055 8556308 8680855 8790153 8865966 8894644 
991.232 8867792 8784709 8653340 8492207 8327993 8187610 8094161 8058919 
995.089 8078463 8135650 8207397 8271625 8312929 8328330 8323772 8311139 
998.946 8301277 8299927 8307154 8317624 8323940 8319110 8299319 8263284 
1002.803 8211449 8147500 8076337 8004105 7938027 7884476 7846080 7821790 
1006.660 7805226 7787920 7760833 7717693 7656413 7578485 7487964 7387553 
1010.517 7280796 7171034 7063893 6968900 6897996 6862448 6868003 6911227 
1014.374 6976913 7041364 7080193 7072111 7008666 6895068 6749831 6596165 
1018.231 6458863 6357277 6300896 6291012 6321101 6381822 6462663 6556705 
1022.087 6660592 6774701 6901767 7043452 7197613 7356109 7504651 7624343 
1025.945 7698536 7715736 7675501 7588095 7472862 7349740 7232515 7124348 
1029.802 7017354 6897559 6751614 6575139 6376644 6177131 6001796 5876336 
1033.660 5816659 5824786 5889066 5987384 6093353 6181197 6233026 6239816 
1037.517 6202069 6127595 6028304 5916742 5802623 5691152 5583973 5481249 
1041.374 5384287 5298012 5231036 5193545 5192841 5229896 5296502 5377913 
1045.232 5455313 5512088 5539303 5538464 5521081 5504168 5507088 5544774 
1049.089 5624116 5742620 5889704 6046951 6191482 6302677 6362993 6363363 
1052.947 6305165 6200187 6067312 5927793 5799668 5692697 5608743 5544103 
1056.804 5495141 5462291 5452058 5474136 5535947 5637912 5768675 5908378 
1060.661 6032739 6121781 6164293 6161873 6126250 6074368 6022021 5980699 
1064.519 5957890 5956546 5977944 6021618 6084280 6156933 6225161 6271716 
1068.376 6280255 6242841 6163755 6061230 5960779 5889972 5869015 5903575 
1072.234 5985100 6092714 6200860 6284322 6327589 6326379 6289432 6235681 
1076.091 6189734 6176694 6213396 6304090 6435625 6582271 6707800 6778572 
1079.949 6773961 6692456 6553678 6392381 6248320 6149875 6109314 6118353 
1083.806 6155051 6190541 6199582 6168158 6093722 5983487 5849637 5707468 
1087.663 5570985 5453836 5369124 5327293 5333935 5387943 5479941 5593102 
1091.521 5708341 5809305 5886076 5938205 5972603 6000049 6029883 6066236 
1095.378 6107264 6146649 6175484 6185735 6172694 6135089 6075107 5997529 
1099.236 5908781 5816223 5726471 5645565 5577428 5524370 5487893 5469405 
1103.093 5470412 5491920 5533430 5591122 5657449 5722576 5775491 5807593 
1106.951 5814611 5796847 5757930 5703842 5640832 5575046 5514906 5471317 
1110.808 5456285 5481316 5551419 5661309 5794161 5926046 6033343 6100241 
1114.665 6125747 6123024 6114791 6120739 6150850 6199817 6250841 6282339 
1118.523 6280154 6243513 6185701 6127427 6087539 6074905 6085725 6105853 
1122.380 6119798 6119294 6107634 6098863 6110792 6158747 6247950 6371870 
1126.238 6513550 6652685 6769686 6849455 6885339 6876385 6828283 6751211 
1130.095 6661164 6576384 6514727 6490578 6510522 6572213 6665773 6777629 
1133.953 6895707 7012168 7124550 7233492 7338889 7437132 7520765 7582262 
1137.810 7618206 7633381 7639990 7654457 7691757 7758911 7852829 7962324 
1141.667 8073603 8175759 8264871 8344273 8421157 8501094 8585609 8670714 
1145.525 8750866 8822275 8886088 8948387 9017595 9099910 9195845 9299044 
1149.382 9398883 9485029 9550767 9596257 9626915 9651307 9676310 9705178 
1153.240 9735537 9761698 9775897 9771389 9745398 9699112 9638738 9573800 
1157.097 9516491 9477748 9465184 9480524 9518388 9567160 9610959 9634876 
1160.954 9628439 9588297 9518760 9430610 9337670 9252163 9184811 9142139 
1164.812 9127148 9139838 9177942 9235714 9304224 9372135 9425869 9452315 
1168.669 9443172 9395091 9311941 9202817 9079778 8953764 8832014 8717499 
1172.527 8608015 8498290 8382274 8256023 8119243 7976363 7835386 7707203 
1176.384 7601313 7523867 7474952 7448524 7434300 7419605 7395338 7357289 
1180.242 7308393 7257413 7215738 7193672 7195996 7221330 7261961 7307449 
1184.099 7346067 7369286 7373027 7358199 7328948 7292454 7255560 7223486 
1187.956 7198826 7180568 7165274 7148129 7125022 7094844 7060054 7026884 
1191.814 7003110 6995904 7008161 7037121 7074266 7108283 7126437 7119903 
1195.671 7085111 7024392 6944220 6853292 6760061 6670888 6589302 6517115 
1199.529 6454323 6400148 6353948 6315654 6286037 6267884 6264892 6281969 
1203.386 6323320 6389993 6479546 6584155 6692254 6790216 6866757 6914863 
1207.244 6934726 6932403 6919071 6905975 6901599 6910116 6929541 6954658 
1211.101 6978227 6995130 7003615 7006612 7010114 7021361 7046785 7087973 
1214.958 7142773 7204485 7265095 7316918 7355941 7382700 7402449 7421795 
1218.816 7447581 7483615 7529834 7583644 7641541 7701571 7764037 7831945 
1222.673 7908433 7995330 8091831 8194228 8297967 8399671 8498560 8595916 
1226.531 8693531 8791202 8885141 8968242 9032345 9072402 9088405 9087458 
1230.388 9080218 9077883 9086985 9106779 9129653 9142917 9135270 9099605 
1234.245 9034781 8946018 8841685 8730311 8618324 8509439 8404603 8304013 
1238.103 8207330 8114111 8024052 7937115 7853537 7775641 7707574 7654221 
1241.960 7621814 7613958 7630008 7664203 7707068 7746531 7771796 7776282 
1245.818 7758775 7722988 7675029 7622320 7570730 7524339 7485233 7453985 
1249.675 7430559 7413639 7401640 7391833 7381014 7367096 7348392 7325881 
1253.533 7301114 7277393 7257818 7244812 7240433 7246732 7265836 7299901 
1257.390 7349942 7413605 7484087 7551411 7602088 7624377 7613013 7572248 
1261.247 7514899 7459379 7424492 7421998 7454322 7513382 7584959 7652434 
1265.105 7703156 7731993 7740763 7736581 7728182 7722313 7722145 7726833 
1268.962 7733849 7740831 7747206 7754458 7764813 7779858 7798783 7818450 
1272.820 7833564 7840143 7836702 7826243 7815717 7813660 7828335 7863625 
1276.677 7917679 7982674 8046936 8096928 8121775 8115225 8077654 8015952 
1280.535 7941773 7870238 7815785 7791665 7806542 7863726 7960232 8087375 
1284.392 8232486 8380720 8518022 8634480 8724159 8786569 8825319 8846825 
1288.249 8856632 8859946 8859642 8857444 8854873 8854366 8858628 8871038 
1292.107 8893900 8928160 8972639 9026357 9088067 9158246 9239233 9334454 
1295.964 9446863 9577187 9722525 9875540 10027217 10166601 10285367 10378917 
1299.822 10446861 10493770 10525917 10550868 10573852 10597245 10620096 
1303.197 10639552 10651606 10653677 10645426 10629229 10608958 10588383 
1306.572 10569948 10554127 10539155 10522556 10502901 10479853 10453615 
1309.947 10425004 10392118 10350378 10293679 10215515 10112640 9987614 
1313.323 9849711 9711344 9585790 9482218 9402540 9342952 9295287 9250606 
1317.180 9202681 9149583 9093481 9039078 8990533 8949908 8916458 8888557 
1321.037 8864647 8845541 8833908 8833502 8846723 8872830 8907563 8943651 
1324.895 8973247 8990871 8995573 8992089 8989924 9000072 9033157 9096052 
1328.752 9190870 9314853 9461188 9621968 9788333 9953372 10111385 10258463 
1332.610 10393646 10517837 10634459 10749345 10869154 11000856 11150071 
1335.985 11319913 11509929 11716810 11933802 12151720 12359997 12547127 
1339.360 12703528 12823570 12908042 12963138 12998984 13026502 13054876 
1342.735 13091447 13140896 13205209 13284734 13378112 13482994 13596961 
1346.111 13717730 13844142 13975654 14112409 14254720 14402832 14556647 
1349.486 14714768 14874420 15031524 15180279 15315046 15431039 15526185 
1352.861 15601122 15660888 15713412 15767697 15833877 15921343 16037604 
1356.236 16189145 16382061 16621707 16913228 17261482 17671546 18148632 
1359.612 18702168 19346266 20101490 20990710 22029844 23212760 24500596 
1362.987 25820850 27088170 28229766 29197886 29971662 30544642 30914218 
1366.362 31082180 31059010 30875544 30584280 30263544 29998394 29859738 
1369.737 29899952 30147712 30620758 31342224 32348730 33689944 35411716 
1373.113 37524748 39962160 42561132 45100092 47351472 49158396 50450420 
1376.488 51205848 51417728 51070428 50147332 48661100 46680368 44335864 
1379.863 41781404 39170108 36617316 34190736 31930282 29856508 27979918 
1383.238 26302650 24813068 23485060 22281174 21162916 20098332 19073084 
1386.614 18094534 17184156 16365578 15651442 15037972 14512518 14061891 
1389.989 13675054 13343328 13056720 12800808 12557563 12307672 12035406 
1393.364 11734817 11412972 11088509 10782597 10509521 10270643 10058210 
1396.739 9864083 9686813 9532578 9411478 9329512 9282559 9256360 9233852 
1400.597 9202817 9160412 9110873 9061474 9016885 8977510 8939559 8898093 
1404.454 8851525 8803205 8760840 8730987 8715402 8710399 8709385 8707898 
1408.312 8706309 8709723 8725038 8756816 8803679 8858357 8911249 8956132 
1412.169 8994626 9035288 9088846 9162002 9253788 9355139 9453230 9537050 
1416.026 9602524 9654220 9703720 9763290 9840153 9931302 10025623 10113081 
1419.884 10194043 10277971 10377831 10502935 10657956 10844761 11064105 
1423.259 11317261 11603845 11920111 12256068 12599107 12938252 13269771 
1426.634 13600004 13945133 14329404 14777189 15304782 15912648 16584493 
1430.010 17295548 18025314 18765684 19521632 20302020 21111814 21948004 
1433.385 22804418 23680546 24584636 25541212 26582848 27730248 28960974 
1436.760 30201132 31357576 32370538 33240158 34009992 34736040 35472076 
1440.135 36257336 37113848 38047024 39048288 40102916 41193924 42308312 
1443.511 43436000 44567732 45696896 46819700 47940312 49073544 50243144 
1446.886 51472560 52772916 54135880 55535852 56949156 58374236 59835040 
1450.261 61373732 63030852 64824140 66731556 68692416 70632648 72480840 
1453.636 74203304 75805496 77316880 78770816 80175880 81489664 82612600 
1457.012 83448064 83988304 84315928 84540736 84718888 84854992 84932544 
1460.387 84940440 84878960 84753888 84566216 84300272 83916072 83355000 
1463.762 82552128 81466008 80101520 78495504 76682112 74662736 72401408 
1467.137 69864648 67050664 64006968 60805508 57530056 54240124 50928756 
1470.513 47540812 43992756 40248808 36409584 32745604 29580612 27092190 
1473.888 25240966 23845208 22699950 21668654 20688624 19760766 18913922 
1477.263 18172334 17534528 16976034 16461721 15962591 15463416 14965534 
1480.638 14481993 14029618 13621133 13259488 12939651 12653685 12395555 
1484.014 12161329 11947766 11749421 11557532 11361849 11153471 10927083 
1487.389 10681964 10418284 10133904 9825037 9489363 9136454 8790796 8483253 
1491.246 8236707 8056827 7935024 7853942 7795274 7742416 7684640 7615610 
1495.104 7534419 7442289 7341787 7234200 7120172 7002840 6889513 6789442 
1498.961 6710526 6654065 6613591 6576888 6531948 6470735 6393558 6306913 
1502.818 6222505 6152530 6106995 6092714 6112405 6164124 6237900 6313839 
1506.676 6361749 6359160 6309199 6233900 6155521 6088682 6043994 6029513 
1510.533 6050075 6105718 6189465 6288323 6386530 6472450 6539651 6587485 
1514.391 6617056 6627990 6615475 6571977 6492696 6382697 6257967 6138684 
1518.248 6038047 5958225 5890476 5819279 5726303 5598909 5440281 5274500 
1522.106 5131581 5025679 4951171 4890850 4828159 4751709 4658793 4554748 
1525.963 4451900 4362797 4295530 4251127 4225029 4210877 4203416 4198698 
1529.820 4193077 4182205 4160259 4120552 4057537 3969051 3862262 3754129 
1533.678 3666573 3614015 3595271 3599615 3615451 3635899 3657284 3678770 
1537.535 3699187 3714627 3718770 3704935 3673356 3637971 3619126 3625341 
1541.393 3645155 3654210 3630687 3564870 3460151 3333453 3210498 3117245 
1545.250 3066454 3055409 3069724 3093517 3115509 3131595 3144711 3160565 
1549.108 3184195 3215104 3246349 3267648 3271955 3258200 3231361 3199483 
1552.965 3171946 3155658 3153656 3164903 3185831 3214303 3252125 3306209 
1556.822 3386780 3504607 3662129 3833513 3955909 3972628 3899437 3794504 
1560.680 3698987 3624940 3570115 3529527 3498862 3474546 3453371 3430995 
1564.537 3401940 3360500 3303337 3232229 3152588 3073195 3004693 2957485 
1568.395 2939304 2950213 2979837 3010698 3026580 3021675 2999955 2968895 
1572.252 2934634 2899876 2864820 2827066 2784479 2736328 2684783 2636010 
1576.109 2597342 2573076 2562710 2563044 2571276 2587042 2610642 2641177 
1579.967 2674914 2704987 2721958 2717790 2688583 2637243 2571276 2501654 
1583.824 2438673 2389328 2356379 2338790 2333260 2335758 2342687 2350982 
1587.682 2357545 2358578 2351349 2334192 2308942 2280463 2256148 2243092 
1591.539 2245956 2265341 2297317 2335192 2371804 2402389 2425745 2443572 
1595.397 2459899 2478293 2500688 2527082 2556211 2586242 2616175 2645210 
1599.254 2673614 2701653 2729827 2758336 2787314 2816060 2842841 2865020 
1603.111 2878862 2881297 2870523 2847143 2813892 2775509 2735862 2698319 
1606.969 2664012 2631876 2599442 2564010 2524416 2481493 2438007 2398057 
1610.826 2365408 2342321 2328896 2322866 2321101 2319335 2314139 2302680 
1614.684 2282694 2253617 2216182 2173056 2127970 2083454 2039642 1995336 
1618.541 1949403 1901977 1854889 1811666 1775633 1749683 1735112 1730089 
1622.399 1729390 1725365 1711959 1689040 1661499 1636721 1621222 1618528 
1626.256 1629038 1650557 1679161 1711360 1745259 1780923 1819718 1862176 
1630.113 1906303 1947372 1978693 1993871 1987813 1958156 1905804 1835290 
1633.971 1754141 1672043 1599572 1543871 1503605 1470523 1437378 1401808 
1637.828 1366873 1337292 1317650 1310471 1315523 1330080 1349988 1370463 
1641.686 1387648 1400080 1408224 1414407 1421587 1433289 1453534 1485019 
1645.543 1529074 1581115 1630102 1660036 1660402 1632131 1585571 1532964 
1649.401 1485684 1453302 1443295 1465004 1527179 1636687 1783185 1923975 
1653.258 1995169 1971869 1891361 1802616 1730488 1678263 1641277 1613706 
1657.115 1590726 1571205 1556174 1548160 1549524 1560929 1579652 1599671 
1660.973 1613074 1611478 1589129 1547063 1493896 1443894 1409786 1398883 
1664.830 1412778 1448847 1501876 1565984 1633827 1695493 1740368 1757867 
1668.688 1741599 1694362 1628938 1562891 1509589 1475111 1458455 1456128 
1672.545 1464240 1480431 1501975 1524319 1540014 1539847 1517536 1474779 
1676.402 1420922 1367172 1321173 1286676 1262484 1243742 1223473 1195131 
1680.260 1155262 1106162 1054378 1010769 988917 1002865 1063977 1168651 
1684.117 1288437 1381631 1427438 1434884 1424313 1412445 1408224 1416235 
1687.975 1437045 1468495 1506763 1546963 1583709 1612409 1630468 1637585 
1691.832 1636288 1631200 1629337 1639747 1672276 1736642 1837752 1966910 
1695.690 2098070 2199364 2250553 2253983 2226207 2189407 2165630 2178551 
1699.547 2248821 2379100 2542013 2694051 2808323 2881697 2925260 2951914 
1703.404 2973432 2998254 3031986 3075597 3124320 3169276 3201252 3216039 
1707.262 3214937 3203154 3186565 3169509 3153789 3138070 3118579 3091215 
1711.119 3052373 2999588 2931598 2847243 2745298 2624742 2486558 2335891 
1714.977 2182480 2041040 1928435 1857817 1834025 1847701 1878183 1901710 
1718.834 1906736 1894755 1875620 1859448 1854423 1864373 1889630 1926471 
1722.692 1967709 2005488 2032518 2044869 2043704 2033151 2019003 2007852 
1726.549 2005155 2014709 2038144 2074099 2117914 2162533 2199530 2222243 
1730.406 2228937 2222610 2210054 2200763 2203027 2223642 2264075 2317570 
1734.264 2369439 2406853 2427011 2434542 2436075 2436674 2439606 2447870 
1738.121 2464264 2491090 2528748 2572843 2614742 2643910 2651044 2630843 
1741.979 2583376 2513785 2431743 2348517 2273401 2210521 2157072 2104796 
1745.836 2044070 1966643 1868532 1751413 1623218 1495858 1381831 1292193 
1749.693 1232976 1205165 1203703 1219884 1242945 1263381 1275643 1278169 
1753.551 1272785 1263314 1254675 1251518 1257300 1272486 1293323 1312399 
1757.408 1320441 1310637 1279398 1226762 1154531 1067033 970917 875620 
1761.266 793057 733278 700554 691328 697335 709349 720434 728001 732083 
1765.605 734838 738854 745658 755317 766005 775066 781539 786883 796443 
1769.945 817456 856962 918817 999079 1082744 1146358 1171375 1152172 1096761 
1774.285 1019902 937146 860249 797140 751201 720932 702014 687644 672545 
1778.624 654426 634084 615005 601965 597054 598548 600804 597121 582456 
1782.964 555748 520284 483562 455699 444820 454273 480610 515606 547752 
1787.303 567161 566762 543572 499119 439413 375139 320259 291180 302586 
1791.643 359785 453311 560691 657611 726175 761491 768162 755582 733510 
1795.983 709614 687511 667268 646097 620347 588295 550340 509170 468104 
1800.322 429629 393810 359653 326194 294495 268535 253549 253085 268137 
1804.662 295656 329145 361244 385652 399846 405318 406280 407806 413112 
1809.001 421901 430359 432747 423692 400078 362538 314257 260478 206142 
1813.341 155791 113830 85030 73431 82213 110946 154166 200905 237934 252422 
1818.163 237171 193214 129507 60738 2882 -30283 -30813 2584 64417 146145 
1822.984 235978 321121 390726 435798 452316 442399 412880 371989 326625 
1827.324 281664 239492 202032 171966 152973 148333 159072 181546 208628 
1831.664 232165 245758 244432 226696 193545 149692 101700 57458 24685 8117 
1836.485 10039 28529 58187 90796 116647 127485 117575 86455 37940 -19349 
1841.307 -73617 -111249 -118636 -86901 -16401 79959 180651 261307 308189 
1845.647 322348 316644 308852 314589 343603 395800 461006 519686 552231 
1849.986 542710 486945 393346 282526 180452 111841 93149 124867 192319 
1854.326 268700 327620 349539 328217 271220 197391 127651 77209 50797 42049 
1859.148 37177 22531 -10105 -60200 -118504 -172064 -208296 -218828 -201606 
1863.487 -160769 -103630 -40388 18489 62959 85626 82047 52620 3379 -52348 
1868.309 -97668 -117245 -102604 -56721 9377 83240 153636 212507 254842 
1872.649 278249 281830 267672 240420 208496 181579 169281 176739 201634 
1876.988 233492 255936 253615 215822 143096 48610 -44430 -111614 -132913 
1881.328 -101312 -23259 83008 192982 283222 335081 340618 302154 232033 
1885.668 146377 62296 -5036 -45556 -53839 -31178 15871 75552 135837 188374 
1890.489 230873 266147 298143 327885 351495 359089 338330 279874 181446 
1894.829 52288 -90545 -226908 -342537 -434368 -509038 -578433 -652879 
1898.686 -736971 -825379 -905734 -961214 -977182 -942666 -854547 -716297 
1902.544 -539352 -340848 -141459 35123 167359 239393 243802 185424 82843 
1906.883 -34424 -134801 -189717 -184219 -120524 -17030 97391 194043 251394 
1911.223 261837 229878 169314 96364 26508 -26804 -56688 -60001 -39692 -3213 
1916.045 36979 65974 69653 38172 -27699 -116019 -207203 -283104 -330949 
1920.384 -344358 -323830 -273170 -199652 -111647 -20873 61103 124436 161459 
1924.724 169513 150819 112869 67035 24420 -7554 -29057 -49499 -84549 -148713 
1929.546 -249560 -381999 -526710 -654897 -738823 -757743 -704818 -587433 
1933.403 -425563 -244957 -67919 88145 213369 301525 346521 340353 276293 
1937.743 154067 -16367 -212834 -402226 -548849 -617345 -582966 -439168 
1941.600 -205316 75519 347615 556013 667733 675896 599443 472317 334617 
1945.940 222320 155393 137030 152609 178562 188374 165370 108361 30517 
1950.279 -46120 -99556 -116616 -96541 -49698 8449 68062 128545 199214 294562 
1955.101 425351 590717 778684 968692 1143800 1299072 1442464 1589495 1752711 
1959.441 1925939 2080458 2168427 2137493 1954029 1615302 1153601 629008 
1963.298 118569 -309759 -609172 -762308 -780135 -692876 -537896 -346510 
1967.156 -143214 59115 256931 453211 653629 862108 1074772 1276839 1437477 
1971.495 1516106 1472784 1279498 936216 471654 -57318 -578201 -1020785 
1975.353 -1329223 -1482072 -1492407 -1399973 -1248186 -1070763 -881398 
1978.728 -673953 -433375 -147785 184231 545496 902946 1212242 1421388 
1982.585 1485817 1383227 1124034 753259 347085 -6427 -234989 -289991 -169480 
1986.925 83008 386647 653497 814203 833889 717414 498754 228386 -47776 
1991.265 -291283 -474650 -580550 -591304 -492059 -278303 34858 406977 773705 
1995.604 1058496 1199284 1163734 964043 652103 309847 19085 -164876 -222868 
1999.944 -169149 -34424 151813 377229 645831 965936 1339286 1744859 2136760 
2004.283 2461032 2661879 2705587 2595608 2373170 2102299 1849897 1666489 
2008.141 1568245 1544237 1561229 1581314 1572668 1516938 1410883 1262517 
2011.998 1084106 886577 678186 464489 247316 32969 -168420 -339557 -453897 
2016.338 -486996 -417089 -241049 23095 336772 653198 930073 1136758 1262816 
2020.677 1316819 1323665 1316287 1327687 1381432 1485119 1626444 1775932 
2024.535 1893124 1932528 1860080 1665125 1367106 1015385 680343 440607 
2028.392 360449 471123 759267 1173136 1630102 2040075 2331261 2451169 
2032.250 2380266 2130767 1741832 1266438 764246 294761 -93295 -360348 
2036.107 -485672 -469686 -331611 -105750 175148 483562 803082 1125197 
2039.964 1442298 1738772 1991940 2173889 2265541 2261244 2176719 2042838 
2043.822 1896486 1766484 1658872 1558502 1437245 1266770 1037405 764279 
2047.679 485751 250499 93448 24751 25580 59048 81583 64914 629 -99755 
2052.501 -210416 -303898 -359190 -368029 -334591 -272740 -197367 -122843 
2056.358 -59239 -11795 14976 17230 -7885 -60929 -138743 -230949 -323135 
2060.698 -400074 -446781 -456016 -427020 -366440 -286680 -201342 -121021 
2064.555 -51255 8482 64748 124436 191822 267142 344896 416230 471720 503564 
2069.377 507777 483263 430326 349638 241117 105412 -53011 -224690 -393752 
2073.717 -539550 -643350 -693703 -690395 -645071 -579260 -515326 -469983 
2077.574 -450587 -453500 -468196 -481568 -484315 -473260 -451216 -423346 
2081.432 -394182 -364884 -331478 -287342 -225915 -144175 -44066 66471 176408 
2085.771 271717 341016 377295 379185 350964 302287 244266 186916 138124 
2090.111 101733 77408 63953 60473 68394 92884 139118 212076 312367 435500 
2094.933 571275 706992 828245 920842 973275 975567 920776 806435 636407 
2099.272 422797 184330 -54005 -266349 -433077 -543455 -597757 -603812 
2103.130 -572443 -510858 -420896 -301117 -151197 21869 200440 361211 478553 
2107.469 534781 528544 474208 398719 332163 298474 306299 349771 411487 
2111.809 471654 515142 536771 540487 537501 539458 552961 578972 612583 
2116.148 644836 666903 672014 656782 621309 567924 500512 423725 341116 
2120.488 255041 166066 73795 -21735 -117974 -209091 -284925 -334127 -347569 
2124.828 -322771 -264527 -185875 -103829 -33795 12591 30683 21239 -11894 
2129.167 -65534 -137583 -226809 -329657 -437976 -539087 -617808 -661646 
2133.025 -666145 -635906 -584786 -530119 -484679 -453533 -433475 -412885 
2136.882 -380112 -328366 -257805 -177529 -102869 -51354 -41415 -86769 
2140.740 -193426 -357965 -564502 -781624 -971661 -1095982 -1126850 -1060484 
2144.597 -922002 -759662 -627238 -572179 -611521 -727676 -869460 -972785 
2148.454 -985281 -881001 -672266 -404312 -141426 60407 165171 172927 113233 
2152.794 35256 -8449 16235 117575 277155 454372 595760 659105 622537 495238 
2157.616 317540 153338 66339 94144 232928 438120 647358 796676 848264 801655 
2162.438 689436 563843 482268 484889 583020 760163 975965 1181442 1327653 
2166.777 1377177 1310438 1125662 839532 484822 114791 -210747 -428344 
2170.635 -485804 -360613 -63678 359620 841491 1301731 1670580 1902176 
2174.492 1980856 1919482 1748319 1507495 1232112 953849 701749 499186 367811 
2178.832 321618 363135 478420 639394 809556 946410 1018275 1007481 913172 
2183.171 750272 545330 331632 143991 17793 -18985 50598 226331 486680 794352 
2187.993 1094204 1330379 1454499 1434951 1265142 964276 570014 129473 
2191.850 -303269 -677592 -954238 -1106293 -1128337 -1036685 -868601 -672464 
2195.708 -499506 -389051 -356210 -386303 -437612 -458564 -398452 -231114 
2199.565 35421 356933 665874 888104 960955 856065 580963 178828 -287177 
2203.905 -743322 -1124107 -1386201 -1509412 -1497195 -1370347 -1159963 
2207.280 -898195 -615856 -341411 -95548 105743 251958 342011 379218 373183 
2211.620 336109 281564 219999 159768 106373 63920 38172 35819 62528 120127 
2216.441 202032 294462 376201 426644 432647 395170 327852 254941 203159 
2220.781 188308 210418 253880 292340 298938 257395 168718 51062 -66428 
2225.121 -154145 -189452 -162624 -79050 45064 188606 328117 443427 519421 
2229.460 547188 525061 460044 368010 271717 194639 156951 168254 225303 
2233.800 311372 405816 486348 536771 552961 538828 504228 459115 411653 
2238.139 365522 323044 286405 259152 246653 253582 280570 323873 373713 
2242.479 417722 442730 438120 399216 326957 228883 116183 5533 -86139 
2246.819 -142916 -153284 -114198 -32370 75684 187943 280305 333887 339690 
2251.158 300629 230873 149924 80423 39331 36382 71774 136997 215888 289621 
2255.980 341116 358393 339159 291146 232199 185291 170607 200838 275000 
2260.320 377925 482334 560592 587631 551733 455898 316843 158210 4473 
2264.659 -123969 -215251 -265388 -277044 -255686 -207866 -139670 -56059 
2268.517 38934 141041 245692 347549 440243 516535 569616 593736 586702 
2272.856 551302 494973 429496 367777 319861 291312 282095 287400 300032 
2277.196 313726 324072 329344 329212 323243 310742 290318 261672 225701 
2281.535 185325 143792 103755 66074 30351 -3147 -32569 -52448 -55429 -34855 
2286.357 12524 82942 167127 250598 321585 372188 402035 416893 425251 433443 
2291.179 442863 449497 446677 429264 396795 353883 310212 276027 258688 
2295.519 262003 285808 327951 386083 458419 542179 631695 717745 787315 
2299.858 827515 829606 793124 727138 647059 571042 514246 483529 478652 
2304.198 492949 518127 546989 575654 601965 624395 639427 641716 626453 
2308.537 591845 541947 487045 440243 414903 418983 453046 510232 580034 
2312.877 651240 714958 766835 805373 830137 840694 836677 818618 789970 
2317.217 758205 732813 723620 736431 770618 818518 867885 906365 925989 
2321.556 926620 914866 903178 902713 920510 957369 1007448 1061917 1111178 
2325.896 1149050 1173136 1185562 1191476 1196892 1207491 1225832 1252614 
2329.753 1285845 1322535 1359461 1394163 1423947 1446287 1458322 1456327 
2333.611 1438076 1403404 1355473 1301930 1252282 1216661 1201942 1208687 
2337.468 1230849 1257333 1275244 1274015 1250222 1208786 1162206 1126193 
2341.325 1115696 1139183 1196294 1276673 1363716 1437145 1478702 1477272 
2345.183 1431095 1348426 1243709 1133934 1032955 948735 885016 841192 814867 
2349.522 803248 804045 815796 838702 873562 923001 991175 1082544 1202340 
2353.862 1353412 1533097 1730987 1927170 2093775 2200097 2222810 2152011 
2357.719 1999097 1794198 1582378 1412213 1319743 1322635 1413742 1567015 
2361.577 1743163 1905205 2023763 2082322 2078394 2019935 1920181 1792634 
2365.434 1649426 1498251 1344438 1190977 1040029 895641 763980 653497 574891 
2369.774 538364 549046 606544 702280 820676 943521 1054045 1140611 1198088 
2374.114 1227394 1232378 1217824 1187024 1141674 1083873 1016814 945514 
2377.971 876484 814469 761623 716053 672843 626386 573730 516236 460409 
2382.311 415135 389068 386979 408104 445549 488670 527184 552662 561620 
2386.650 555847 541217 525094 514876 515341 527980 550207 575588 596490 
2390.990 604221 592741 560625 512488 457789 408834 377826 371425 389930 
2395.329 426279 469066 506483 530136 537667 532890 522904 514611 511957 
2399.669 514511 518857 520516 516833 508175 497958 490229 488073 492253 
2404.009 500479 509071 514909 516469 514677 512056 511227 514047 520648 
2408.348 529340 537800 543439 543638 536572 520648 495139 460774 420243 
2412.688 378986 344465 324669 326095 351661 398553 458585 521046 573066 
2417.027 604122 609132 588461 548416 499219 453211 420807 409000 420011 
2421.367 451055 495271 543804 588494 623864 647756 662390 672578 683795 
2425.707 700222 723587 751799 780245 802883 814203 810186 789838 754819 
2430.046 709316 658740 608833 565104 531828 511526 505289 512123 529572 
2434.386 553790 580996 607008 629041 645367 655654 660797 661594 659005 
2438.725 653530 644437 630633 611554 586902 557539 525127 492153 460509 
2443.065 431254 404489 378555 351528 321983 289257 254908 221955 193943 
2447.405 175579 170176 179888 205612 246322 299436 361112 425682 486580 
2451.744 537534 573531 592210 595097 586802 574128 564540 562184 568289 
2456.084 579901 591912 598614 596524 585707 569085 551368 536439 525790 
2460.423 517696 507246 488770 458485 416064 365754 315782 277221 260810 
2464.763 274204 319761 394043 486846 583451 668463 727603 751666 738755 
2469.103 693618 626618 549842 475335 411653 363367 331433 315351 313992 
2473.442 327023 353584 392650 440342 490893 536904 571540 590916 595429 
2477.782 590020 582057 580332 590850 615967 653828 699160 744463 783033 
2482.121 809589 821440 818850 803846 780444 752429 723022 694248 666439 
2486.461 638498 609364 577877 544567 511061 479946 453410 432680 417756 
2490.801 407076 400675 399216 405683 424223 458021 506981 566331 626685 
2495.140 675863 703674 704337 678817 635412 586802 544899 518758 510929 
2499.480 517729 531629 543937 548515 542477 526752 503199 474440 440342 
2503.819 399515 349937 291014 225635 161260 107665 76314 76214 111344 178794 
2508.641 269695 371094 467839 548880 608037 645864 668231 684060 701516 
2512.981 724848 752662 779448 797904 801423 788377 762619 733179 711738 
2517.320 708287 728565 772544 834188 902846 968294 1021065 1055009 1068129 
2521.660 1061120 1036010 995326 941496 876650 804410 729860 658972 598946 
2526.000 555383 530800 524231 530501 542875 554023 559795 559231 555648 
2530.339 554255 559928 574825 597453 622404 643077 654227 653828 643973 
2534.679 630235 619650 617991 627780 648320 676394 707789 738821 767631 
2539.018 792626 812610 825357 827183 814966 787016 745393 695941 648121 
2543.358 612151 596490 605183 636374 683529 736132 783066 815564 828013 
2547.698 819880 794850 760229 724649 696771 682799 685686 703309 729926 
2552.037 757740 779016 789605 789705 785622 785921 799663 832627 885215 
2556.377 951425 1021330 1084969 1134266 1166093 1182173 1187123 1185994 
2560.234 1182040 1176193 1167986 1157156 1146026 1139116 1142538 1161475 
2564.092 1197323 1246400 1300501 1349855 1385155 1401509 1398850 1381665 
2567.949 1355705 1326656 1297510 1269030 1240884 1213870 1190612 1176093 
2571.806 1175063 1190080 1219120 1255871 1291495 1316819 1326623 1321139 
2575.664 1305918 1289069 1279033 1281027 1295815 1319910 1347861 1374917 
2579.521 1397952 1416734 1432391 1446686 1460084 1471521 1479300 1481927 
2583.379 1479400 1473349 1466600 1462577 1463974 1471487 1484886 1502873 
2587.236 1523920 1546631 1570507 1595348 1621022 1647563 1674671 1701780 
2591.094 1727927 1751380 1769811 1780158 1778993 1764355 1735711 1695194 
2594.951 1647330 1598275 1554478 1520961 1500878 1494893 1502374 1521692 
2598.808 1550787 1588132 1631066 1676500 1720009 1756570 1782187 1794531 
2602.666 1794198 1784350 1770410 1758133 1751646 1753276 1762558 1777729 
2606.523 1796294 1816390 1837552 1860379 1885404 1913159 1942613 1972169 
2610.381 1998265 2017405 2026193 2022132 2004656 1974665 1935623 1892193 
2614.238 1849798 1813895 1788941 1777130 1778727 1791669 1812730 1837785 
2618.095 1863341 1886602 1906270 1922178 1935490 1947838 1961285 1977062 
2621.953 1995802 2016806 2037845 2056687 2070437 2077461 2077695 2073000 
2625.810 2066541 2062014 2062480 2069205 2081557 2097404 2113752 2127803 
2629.668 2138225 2145051 2149880 2154375 2159703 2166130 2171957 2175021 
2633.525 2173056 2164964 2151644 2136727 2124674 2120978 2129701 2151844 
2637.383 2185610 2226573 2269304 2308609 2341721 2368339 2390261 2409485 
2641.240 2427211 2442739 2453335 2455834 2448670 2432376 2410985 2389761 
2645.097 2374203 2368239 2372770 2386463 2406654 2431576 2460299 2493123 
2648.955 2530215 2569777 2607742 2638143 2654878 2654345 2637110 2608108 
2652.812 2574243 2542846 2517950 2499588 2484392 2467963 2447370 2423946 
2656.670 2402722 2390528 2394559 2418148 2460399 2516417 2579209 2641710 
2660.527 2698785 2747865 2788481 2820629 2843941 2857849 2861084 2853914 
2664.385 2837838 2816027 2792783 2772508 2758236 2751667 2752700 2760136 
2668.242 2772174 2786680 2801720 2815560 2826465 2833969 2838605 2841573 
2672.099 2845742 2853547 2866554 2884565 2904946 2924226 2938704 2945943 
2675.957 2946210 2942540 2939037 2940605 2950913 2970596 2998287 3029650 
2679.814 3059580 3082839 3095553 3096187 3085608 3067155 3045299 3024945 
2683.672 3010165 3002658 3002257 3006461 3012200 3017038 3019807 3021742 
2687.529 3025146 3032453 3044832 3061215 3078567 3092349 3098790 3095519 
2691.386 3082505 3061649 3035656 3007162 2977402 2946710 2915353 2883798 
2695.244 2853914 2828666 2810858 2802420 2803587 2812158 2824264 2836070 
2699.101 2844075 2846609 2843774 2837171 2828633 2819662 2811525 2804221 
2702.959 2798018 2793116 2789815 2789048 2791582 2797885 2807956 2821496 
2706.816 2837638 2855781 2875126 2895206 2915587 2936168 2957018 2978303 
2710.674 3000422 3023678 3048169 3073428 3098323 3120916 3139271 3151586 
2714.531 3157494 3158295 3157160 3158762 3167941 3188568 3222248 3267448 
2718.388 3319864 3373522 3421543 3458581 3481894 3491414 3489811 3481494 
2722.246 3471139 3463190 3460719 3466096 3480024 3502436 3531497 3564436 
2726.103 3596975 3624339 3641680 3645957 3636033 3613446 3581941 3545795 
2729.961 3509317 3475014 3443753 3415432 3389418 3365976 3345841 3330115 
2733.818 3319330 3312419 3306743 3298630 3284474 3262273 3232062 3196412 
2737.676 3159029 3123819 3093217 3068056 3047001 3028048 3008997 2988578 
2741.533 2966259 2942473 2918422 2895339 2874826 2858750 2848911 2846943 
2745.390 2854080 2869923 2892637 2918789 2944008 2963557 2974199 2974166 
2749.248 2963824 2945276 2922191 2898641 2878361 2864420 2858349 2860284 
2753.105 2868722 2880863 2893938 2905279 2913318 2918422 2921824 2925494 
2756.963 2931498 2940805 2953215 2967694 2983240 2998454 3013568 3028749 
2760.820 3044898 3062483 3081437 3100859 3119681 3136735 3150886 3161466 
2764.677 3167841 3169176 3165304 3156226 3143777 3130660 3121349 3120582 
2768.535 3132229 3158328 3198114 3248419 3304372 3360533 3412760 3458414 
2772.392 3496658 3528491 3555950 3581440 3607666 3636968 3671418 3712120 
2776.250 3759142 3811017 3865137 3918294 3968248 4013860 4056199 4097907 
2780.107 4142462 4192642 4249521 4312363 4379130 4447280 4515474 4583679 
2783.965 4653234 4725781 4801859 4880061 4957137 5028595 5090545 5141069 
2787.822 5181004 5213765 5244283 5277418 5316694 5362951 5415487 5472592 
2791.679 5532827 5595687 5662182 5734092 5813100 5899948 5994002 6093185 
2795.537 6195482 6298442 6400787 6501946 6601413 6698647 6792404 6880895 
2799.394 6962637 7036986 7105116 7170091 7236659 7309976 7394529 7493324 
2803.252 7606741 7733309 7869394 8010551 8152295 8290605 8422812 8547928 
2807.109 8666928 8782343 8898363 9019963 9150971 9294441 9450826 9618378 
2810.967 9793350 9971239 10147641 10319500 10485250 10645154 10801347 
2814.342 10956645 11114955 11280805 11457978 11649893 11858304 12083134 
2817.717 12322056 12571888 12828826 13090594 13357029 13629715 13912356 
2821.092 14207677 14517384 14840475 15173862 15513549 15857212 16204759 
2824.468 16560536 16931832 17328134 17758970 18231972 18751674 19320040 
2827.843 19936888 20601094 21312288 22071674 22882822 23751094 24683456 
2831.218 25687424 26769090 27933484 29183500 30520184 31945296 33462164 
2834.593 35077876 36804344 38657168 40653192 42808800 45134980 47636496 
2837.969 50310328 53148204 56136964 59261868 62509208 65865404 69318552 
2841.344 72859016 76477776 80168304 83926920 87750952 91638416 95585184 
2844.719 99581696 103613472 107658320 111687504 115668816 119563512 
2847.612 123327440 126912520 130260064 133305952 135984288 138226896 
2850.505 139975360 141183152 141819360 141871728 141346640 140269200 
2853.398 138679600 136634384 134200800 131447616 128447504 125264896 
2856.291 121954224 118563848 115132000 111693416 108281672 104927872 
2859.184 101663664 98519000 95519080 92687136 90042568 87600888 85376448 
2862.560 83379648 81617080 80090360 78794416 77717720 76843792 76153328 
2865.935 75625344 75238168 74971744 74803912 74710832 74666672 74641848 
2869.310 74606000 74529480 74383176 74143008 73789512 73308288 72693248 
2872.685 71944944 71073688 70097272 69042448 67940544 66824684 65729388 
2876.061 64684904 63717328 62849084 62096308 61471744 60983800 60636848 
2879.436 60432112 60366964 60437372 60636200 60956616 61392052 61936780 
2882.811 62586584 63338740 64191804 65145084 66198304 67350232 68598072 
2886.186 69935984 71355304 72844912 74391240 75981248 77603368 79247320 
2889.562 80906056 82573528 84244240 85913120 87575224 89226384 90864080 
2892.937 92487304 94096576 95692512 97274560 98841128 100389360 101916736 
2896.312 103422296 104907328 106376320 107834720 109289416 110747296 
2899.205 112213944 113693744 115190360 116705144 118237672 119785760 
2902.098 121346704 122917672 124498848 126093912 127710416 129358528 
2904.991 131048128 132787064 134579104 136424944 138323344 140273824 
2907.884 142277616 144336944 146454400 148630368 150862368 153146528 
2910.777 155478928 157858096 160285776 162764224 165293008 167864352 
2913.670 170460768 173057168 175621456 178123072 180534800 182832432 
2916.563 184995008 186996976 188805104 190380080 191673808 192638032 
2919.457 193229968 193412624 193159824 192455712 191294032 189680512 
2922.350 187634368 185188848 182387344 179279888 175916960 172340336 
2925.243 168585248 164679920 160648800 156519504 152323328 148094096 
2928.136 143866768 139669584 135524704 131446408 127442928 123520312 
2931.029 119684664 115942648 112301432 108766880 105342408 102029208 
2933.922 98826944 95735384 92755184 89888128 87136280 84501120 81982496 
2937.297 79579776 77292208 75120144 73066872 71138048 69340440 67682376 
2940.672 66170992 64812444 63612244 62574176 61701452 60996304 60459232 
2944.048 60089220 59882804 59835572 59941756 60195392 60590484 61118684 
2947.423 61769860 62529796 63378656 64295412 65255352 66233812 67208688 
2950.798 68157368 69057360 69886208 70618336 71229504 71698776 72010488 
2954.173 72158072 72143560 71975680 71666848 71230832 70679624 70023688 
2957.549 69271104 68428688 67500776 66489452 65394296 64212656 62941188 
2960.924 61578760 60128528 58599464 57004048 55358240 53677320 51973192 
2964.299 50254748 48527032 46794128 45060800 43333884 41622596 39938476 
2967.674 38292380 36694072 35150772 33666348 32242582 30879244 29574438 
2971.050 28326272 27132044 25989600 24896712 23851686 22853868 21903710 
2974.425 21002466 20151640 19353402 18608366 17915772 17273102 16675623 
2977.800 16116720 15589375 15086924 14604037 14138116 13689723 13261436 
2981.175 12857630 12482536 12138500 11825582 11540620 11278118 11032292 
2984.551 10797068 10567877 10342608 10120135 9900318 9683493 9469959 9259610 
2988.408 9052238 8848212 8647425 8450548 8258016 8069822 7886704 7708991 
2992.265 7537689 7373836 7218163 7070225 6928565 6790654 6653560 6514895 
2996.123 6373887 6231715 6091135 5955001 5826062 5705118 5591323 5482223 
2999.980 5374994 5267490 5158672 5048708 4938269 4828594 4720154 4613181 
3003.838 4507774 4404099 4302491 4204118 4109648 4019545 3933674 3851297 
3007.695 3771442 3693607 3617088 3541552 3466798 3392390 3317627 3242744 
3011.552 3168408 3095920 3027781 2966493 2913151 2867355 2826565 2786880 
3015.410 2744464 2696151 2641777 2583242 2525349 2472895 2430810 2401689 
3019.267 2385730 2380166 2381332 2383731 2383265 2376668 2361809 2338790 
3023.125 2308609 2272668 2233001 2191172 2148514 2106061 2064411 2024629 
3026.982 1987746 1954928 1927702 1906702 1892093 1882342 1875188 1866635 
3030.840 1853558 1833260 1805477 1771774 1735545 1701148 1671810 1649326 
3034.697 1633328 1622153 1613606 1606057 1599937 1597244 1600536 1611910 
3038.554 1631499 1656743 1682654 1703011 1712591 1708766 1691868 1665624 
3042.412 1635956 1608484 1587300 1574165 1567879 1565452 1562758 1556008 
3046.269 1542541 1521094 1492101 1457059 1418861 1380268 1344537 1314360 
3050.127 1291628 1277670 1272253 1275045 1284649 1299172 1316187 1332772 
3053.984 1345601 1350786 1345435 1327753 1298341 1259659 1216462 1174000 
3057.842 1136990 1108421 1089454 1079854 1077994 1082113 1090517 1101179 
3061.699 1111909 1120214 1123337 1119848 1109650 1095499 1081382 1071849 
3065.556 1069623 1074340 1082179 1086896 1082511 1065505 1036276 999046 
3069.414 960789 927516 903278 888536 880932 876484 871869 865826 859385 
3073.753 855169 855767 863004 877214 897069 920676 945912 970951 993699 
3078.093 1012330 1024519 1027873 1020998 1003629 977426 945315 910914 878210 
3082.433 850189 828677 814601 807697 806601 809589 813738 815929 813738 
3086.772 805008 790070 770154 748081 726574 707656 692523 681637 675564 
3091.112 675598 683396 700620 727304 760794 795613 825091 843417 848098 
3095.451 840960 828013 816527 812211 816493 825822 833822 833192 820046 
3099.791 795481 765407 738456 722027 720201 732116 752396 773838 790136 
3104.131 798004 797041 789771 779813 770884 765374 764611 769258 778817 
3108.470 791929 806203 818353 824726 822668 811282 792360 770054 750139 
3112.810 737361 735303 743833 760727 782004 803149 820942 833291 839732 
3117.149 840263 835383 825988 813107 798601 784726 773639 767100 765606 
3121.489 767996 772046 775498 776361 773672 768096 760428 751433 741908 
3125.829 731386 720135 707955 695775 685188 677157 672312 669989 668430 
3130.168 665742 660498 653032 645566 641186 643177 653198 670520 691262 
3134.508 710178 721562 721131 708054 684823 656682 630368 612019 605250 
3138.847 610459 624495 641716 656550 663120 659072 644338 621973 596524 
3143.187 573763 559198 556677 568388 594566 632624 678219 725910 769457 
3147.527 803116 822900 826884 815730 792759 762885 732116 705632 687910 
3151.866 681239 685520 698961 718044 738655 757010 770353 777622 779680 
3156.206 777855 773938 769025 762818 754321 742538 727503 710577 694879 
3160.545 683994 680476 685553 697302 712170 726541 737560 744862 750537 
3164.885 757839 769556 787315 809854 834353 857858 878011 894412 907992 
3169.225 920510 932730 944152 952653 955708 951458 939836 922536 902647 
3173.564 882958 865527 850787 837839 825423 812643 799464 786485 774900 
3177.904 764943 756512 748944 740779 731386 720135 706992 692191 675564 
3182.243 657280 637535 616730 596192 577678 562881 552828 547819 546657 
3186.583 546624 545463 539558 526852 505986 477923 445218 412615 386315 
3190.923 372287 374708 394142 427506 468204 507545 538198 555283 558866 
3195.262 552430 542311 534482 532857 538928 551899 570279 593239 620646 
3199.602 652202 686582 720002 746222 758304 751433 724483 681272 629704 
3203.941 579337 537667 508374 490627 480079 472118 462797 451752 440342 
3208.281 431221 426147 425085 426346 427705 427838 427241 427407 430359 
3212.621 436893 445981 455135 461736 463958 461968 457424 452913 449165 
3216.960 446147 441437 432415 417291 397027 374841 356038 346156 348212 
3221.300 363035 388173 418751 449132 474473 490362 494707 486249 465451 
3225.639 434007 394507 351230 308653 271187 242376 223977 215490 214827 
3229.979 218839 224242 228519 230641 230243 228386 227027 227988 233724 
3234.319 245658 264622 290583 321684 354745 385984 411885 429596 438020 
3238.658 438120 431884 421735 409796 396762 381871 363566 340221 311339 
3242.998 277420 241183 206109 176640 155525 144819 144123 151813 164939 
3247.337 180187 194739 206606 214629 218673 219601 218673 217281 217314 
3251.677 219866 225303 233027 242111 250068 255207 256201 253018 246951 
3256.017 240619 236442 236442 241183 249736 259948 269131 275066 276226 
3260.356 272811 265617 256566 247482 240321 236707 237967 245062 257262 
3264.696 273740 291810 308023 318700 321220 314091 298242 275630 249902 
3269.035 224077 201203 183037 170143 162586 159768 160729 163911 166696 
3273.375 166828 161624 149692 131827 110748 90365 75320 69553 74259 88775 
3278.197 110516 136367 163149 189070 213104 234917 253947 269761 281167 
3282.536 287599 288826 285643 278945 269562 257991 243935 227193 207667 
3286.876 186750 165834 146941 131131 117906 105776 92818 77640 61004 45495 
3291.698 35189 33433 42082 59148 80987 101766 117045 124071 122878 115388 
3296.520 104053 90896 76214 59711 41154 20841 1557 -12955 -19217 -14379 2120 
3301.823 29059 63853 103721 146112 188441 228519 262633 286571 296650 290782 
3306.645 269595 237768 202993 173988 157382 156520 169679 191324 214662 
3310.985 233856 245824 250399 250035 247084 243271 238696 231933 222087 
3315.324 209192 195601 184231 178562 180518 189634 202562 214761 221226 
3319.664 218176 204319 180750 150222 116879 85096 58750 40988 33400 36051 
3324.486 47384 63986 82047 97756 108527 114095 115454 115620 117442 122977 
3329.308 132324 144223 156619 167193 174817 179491 182209 184065 185988 
3333.647 188739 192385 197424 204485 214761 229016 247349 268070 288693 
3337.987 306100 317440 321486 318733 310344 299104 286670 273806 260909 
3342.326 247416 233127 218507 204551 192253 182374 175115 169778 166132 
3346.666 163713 163149 164674 168718 174651 181380 186849 189899 190231 
3351.006 189203 189269 192882 201634 214728 229911 243769 253284 257030 
3355.345 255604 251129 245824 241117 236475 229812 218341 200440 176176 
3359.685 147902 120193 97425 83837 81484 90631 109389 135671 167458 203059 
3364.507 241945 283189 325630 366418 401969 427175 438020 431719 408005 
3368.846 370165 324835 280139 243901 221988 216021 223281 237370 250432 
3373.186 256069 250863 235845 215656 196893 184861 182673 189203 201269 
3377.525 213501 221524 222717 216982 204982 188639 169182 147537 124469 
3381.865 101236 79959 63853 55966 58286 70382 90133 113101 134511 151018 
3386.687 160464 163746 162685 160663 160995 165867 175977 190860 208131 
3391.026 223811 233757 234055 222949 201203 172961 144455 121685 109952 
3395.366 110847 122281 138853 154166 161989 159238 146178 126822 107036 
3399.706 92321 86919 92387 108030 130700 155691 178529 194407 199877 193711 
3404.527 177004 153437 128943 110449 103092 109554 128347 154166 179457 
3408.867 197092 203258 197921 185391 172629 166066 169149 181380 198551 
3413.207 215026 225137 226596 220364 210485 202363 200440 206242 218839 
3417.546 234088 246587 251593 246255 229712 204452 174916 146908 126192 
3421.886 117807 124734 147272 183369 227922 274469 315318 344631 358127 
3426.225 354977 337767 311571 282625 256069 235945 224043 219866 222452 
3430.565 230408 242443 257560 274403 290948 304376 311638 310742 301326 
3434.905 285178 266413 249736 239393 237768 244465 256267 268866 277950 
3439.244 279542 272314 256500 233889 206739 177634 148830 122049 98883 80523 
3444.066 67996 61832 61368 66438 75883 87913 101832 116680 130965 143858 
3448.888 153537 157680 154465 142996 123740 99811 76049 57358 49173 54011 
3453.709 72072 100275 133683 166431 192783 208728 213037 206076 191192 
3458.049 172861 157050 148731 151946 168154 195037 227259 256732 275000 
3462.389 275298 255372 217513 169182 119862 79131 54276 48047 58717 81848 
3467.210 110681 139450 164177 182938 195170 201866 203225 199380 191822 
3471.550 182109 173391 169414 173690 187546 210054 236740 261672 278713 
3475.890 283421 274303 252952 222817 188208 152642 119000 89305 65510 49637 
3480.711 44070 50300 68095 93812 121121 142532 150752 142168 116945 80224 
3485.533 40193 6328 -13154 -13319 5699 39232 80224 120790 154233 176971 
3490.355 187413 186816 176772 159702 137362 111676 84201 56430 30583 8283 
3495.177 -8548 -18587 -21337 -17030 -6825 8018 26176 46456 67863 90133 
3499.999 112836 135340 157448 177999 195833 209789 218076 219734 214529 
3504.338 203358 187943 171601 158177 150852 152509 163182 180618 198982 
3508.678 211214 209988 190463 153238 103622 50234 1722 -35153 -57715 -67389 
3513.500 -68449 -65368 -61127 -56026 -47412 -31873 -6891 26839 65146 101302 
3518.321 128479 141836 140345 127187 107864 88476 74458 68592 71741 82809 
3523.143 99479 119133 139085 156056 167060 168883 159702 139848 112869 84433 
3527.965 62031 52122 57325 76877 105942 137594 164939 182838 188540 182275 
3532.787 165867 142168 114824 86919 61600 41154 27303 19880 17362 17296 
3537.608 16401 13253 7587 530 -5798 -9409 -10205 -9476 -9675 -14015 -23590 
3542.912 -37837 -53176 -64672 -67455 -58643 -39295 -13916 11265 30517 40425 
3547.734 41021 34725 24784 14347 5599 -463 -3777 -4903 -5699 -8283 -15672 
3553.038 -30449 -53905 -85146 -121286 -156265 -182861 -194784 -187332 
3556.896 -159676 -115655 -62420 -9376 34493 62826 73099 67565 51625 31809 
3561.717 14512 4075 2683 11066 29258 56596 91956 133550 176739 214297 237602 
3567.021 239359 218573 180253 134412 90432 54707 29622 14347 5699 -994 -9211 
3572.325 -21801 -38466 -56489 -71397 -78388 -74015 -57583 -31111 1391 35222 
3577.147 66206 92486 113697 130600 143858 153338 157116 152675 137395 109753 
3581.969 70879 24155 -25777 -73087 -113171 -142916 -161332 -169414 -168685 
3586.308 -160769 -145699 -122048 -87895 -42542 12856 75088 139914 202794 
3590.648 260113 308421 345526 369203 378091 371624 350102 315484 271916 
3594.988 225071 181513 147869 128247 124436 135075 155791 179988 201402 
3599.327 214198 215590 206208 189899 172132 157580 149327 147637 150885 
3603.667 156951 163845 171336 180120 191921 209092 232762 261904 293169 
3608.006 320225 336838 338032 322944 293401 254709 212673 174353 146477 
3612.346 134147 139251 159006 185756 209689 222121 217910 195733 157812 
3616.686 108527 55171 6262 -29289 -44264 -34955 -2584 47284 107533 170010 
3621.507 227624 273740 301723 306697 285112 236707 165138 78302 -12690 
3625.847 -96243 -160007 -193426 -187630 -139538 -56059 42314 127982 183303 
3630.187 207634 211612 207037 203623 206772 217877 235215 254013 268568 
3634.526 273939 268269 252786 231735 209888 191689 180021 174982 174982 
3638.866 176905 178562 179192 180286 184463 194573 212043 235978 263628 
3643.205 292009 318899 343968 368872 395933 427341 463461 501707 538032 
3647.545 568388 592708 616000 645134 682467 721330 746820 744264 708652 
3651.885 642679 555947 458950 362074 273143 198253 141671 105080 87151 83572 
3656.706 89504 100971 116050 133617 152111 168751 180021 182573 174949 
3661.046 158442 137130 115785 98916 88543 83373 80291 75055 64914 48875 
3665.868 28827 8250 -7985 -14976 -8449 13253 48345 88708 120293 129871 
3670.689 110085 63853 -66 -70139 -135265 -184782 -205647 -184318 -113369 
3675.029 -3313 115056 203059 241349 236011 204584 163911 125629 96430 78534 
3679.851 71873 74955 86256 105677 132158 163646 195932 222585 236807 233757 
3684.673 212673 177203 135539 96927 70448 62429 73364 97458 124104 144223 
3689.494 154697 159669 166298 178463 195004 209855 215126 205115 177833 
3693.834 135439 83406 29291 -18620 -53905 -72723 -74909 -63016 -42045 -16964 
3698.656 7753 28463 42678 49372 49306 44932 40756 40226 44799 52520 59214 
3703.960 60540 53216 36879 14148 -9045 -26108 -29653 -14976 19947 73795 
3708.781 142201 219634 299701 375836 440840 487708 509569 502436 466545 
3713.121 406977 332030 251692 174651 108063 56894 23426 7687 7057 16832 
3717.943 30683 42645 48345 45992 36382 22498 8482 -1656 -5964 -4406 629 5467 
3723.729 7388 6063 3180 3214 10834 28794 56629 89272 119597 141140 149228 
3729.033 142002 119862 85626 43937 1358 -34159 -54833 -54468 -30714 15440 
3733.855 79827 154299 228088 288295 324536 333655 320988 295954 266545 
3738.194 238232 212838 190197 170209 153736 143759 145880 167292 217314 
3742.534 304044 430790 586338 739086 845807 876749 835549 747683 639560 
3746.874 526620 415832 309383 207402 112968 32108 -26241 -54568 -50990 
3751.213 -21834 18654 56729 81252 87482 76248 51427 17627 -20807 -59835 
3756.035 -96144 -126156 -146030 -152687 -143645 -118603 -80077 -33530 12591 
3760.375 50333 73431 79164 68626 45230 13121 -23922 -61194 -95415 -123671 
3765.196 -144109 -156629 -161664 -159411 -149640 -131489 -104061 -68449 
3769.054 -28428 9642 38636 54078 56364 49372 39265 31014 27601 29490 35587 
3774.358 43341 51294 58850 67267 78833 95171 116316 139417 158376 165270 
3779.179 154498 124999 81417 32273 -14181 -51818 -78619 -94057 -99457 -96011 
3784.001 -85113 -67853 -46285 -22828 -1292 14512 21040 16567 1954 -19681 
3788.823 -42608 -60100 -66461 -57881 -33331 4937 52222 102595 150421 190496 
3793.645 218806 233260 232431 217314 191092 160199 132556 115023 111709 
3797.984 122845 146046 177800 214164 249571 276823 287765 275530 239956 
3802.324 188639 132490 81848 43971 25050 29755 61699 119796 195700 271751 
3807.146 327255 348610 334882 295987 246023 198286 161459 140146 134379 
3811.485 140676 154001 169314 184131 198584 214629 235017 260412 286869 
3815.825 306299 310577 296153 266512 229646 194175 168618 160497 173756 
3820.165 206971 250432 288759 308322 306531 290284 270126 254113 246885 
3824.504 249239 258853 270424 277785 274967 258820 230110 192717 152410 
3828.844 115122 86223 70879 73066 94375 132523 181513 231469 272679 298375 
3833.666 306133 297910 279509 258356 241647 233923 236011 245128 255737 
3838.005 262368 262368 256599 247813 238398 229082 218441 205347 189137 
3842.345 171668 156818 150123 155757 175115 205811 242940 279741 310577 
3846.684 330969 337933 330969 310974 280603 243901 206374 174518 154465 
3851.024 152509 172298 213369 265352 309184 325763 310311 275795 240089 
3855.364 215391 204882 205976 212341 217977 217678 209523 194905 177767 
3859.703 162851 154465 154597 161989 173425 183700 188540 186153 177137 
3864.043 163514 148200 132390 115818 97524 76546 53547 30650 11762 2485 8813 
3869.347 33400 72735 117244 156951 185756 203026 211214 213932 214363 214960 
3874.168 217015 220563 224706 228552 231304 232398 231834 229314 225204 
3878.508 219999 215126 211910 212010 216087 223115 231701 239824 245857 
3882.848 249206 249239 245161 235845 220032 196695 166762 132788 97888 64848 
3887.669 35322 10404 -8912 -21172 -24551 -17096 2849 34593 75021 119166 
3892.491 161492 197391 224010 240089 246023 243205 233823 220496 205877 
3896.831 192286 180916 171668 162685 151581 136169 115620 92486 71244 57855 
3901.653 57491 72934 103523 144621 188109 225336 250499 262368 264490 262368 
3906.474 261141 263561 269794 277652 284217 287234 285808 280934 274900 
3910.814 269595 265816 262003 254908 241481 220231 191954 160762 132224 
3915.154 111477 101700 101633 106837 110615 108527 99877 88543 79992 78501 
3919.975 85262 97557 110118 117873 118801 114393 109886 111543 124204 148499 
3924.797 179358 207899 225900 228022 213932 186783 151548 113167 75353 40359 
3929.619 9111 -17295 -37009 -47147 -44993 -29256 -1358 34394 71244 104318 
3934.441 130136 148267 160564 170408 181115 195137 213037 233392 253151 
3938.780 267971 273773 267971 249338 219170 181612 143096 110582 89901 83472 
3943.602 89305 102528 117244 129573 137726 142334 146112 152211 162221 
3947.942 176209 191822 205181 213170 214264 208496 197722 184595 171601 
3952.281 160663 153238 150123 152078 159536 172231 189070 208562 227624 
3956.621 243238 252687 253748 245692 228950 204949 176242 145747 116746 
3960.960 92022 74027 63986 61865 66737 76844 90465 106207 122679 138224 
3965.782 150520 157315 156354 147239 131495 113697 100308 97126 108925 
3970.122 135705 173922 216386 255604 285112 301690 305669 300231 289920 
3974.461 278415 268302 260909 256334 254742 255969 259384 263097 264457 
3978.801 260246 248211 228419 204153 181612 167060 165867 179457 204816 
3983.141 234983 262136 280139 285510 279542 265849 249935 236442 228784 
3987.480 228254 234751 246686 262136 277785 289953 293865 286405 266545 
3991.820 235912 199612 165038 138621 125165 125331 136003 151714 166696 
3996.159 177502 183700 187546 192551 201402 214496 230011 244730 255273 
4000.499 260014 
##END=
