##TITLE=ab_3 Sep 07 10:06:44 2026 (GMT+02:00)
##JCAMP-DX=5.01  $$ Nicolet v. 970
##DATATYPE=INFRARED SPECTRUM
##ORIGIN=Vojna akademija
##OWNER=Nicolet
##LONGDATE=2026/09/07
##TIME=10:07:14
##SPECTROMETER/DATA SYSTEM=Nicolet iS20
##DATA PROCESSING=
Ratio against background
%Transmittance->Absorbance
Truncated
ElementMultiply or ElementDivide
##COMMENTS=
Number of sample scans: 8
Collection length: 11,90 sec
Sample gain: 8,0
Background collected on: Mon Sep 07 10:04:03 2026 (GMT+02:00);
Number of background scans: 8
Background gain: 8,0
Sample spacing:  1,000
Number of scan points: 12415
Resolution points: 8286
Number of FFT points: 65536
Apodization: N-B strong;
Phase correction: Mertz;
Laser frequency: 15798,00 cm-1
Number of rejected sample scans: 0
Number of rejected background scans: 0
Bench serial number: BER2010005;
##RESOLUTION= 4,000
##XUNITS=1/CM
##YUNITS=ABSORBANCE
##FIRSTX=400.156891
##LASTX=4000.123047
##FIRSTY=0.014837
##MAXX=4000.123047
##MINX=400.156891
##MAXY=0.273279
##MINY=-0.007148
##XFACTOR=1.000000
##YFACTOR=1.000000E-009
##NPOINTS=7468
##DELTAX=0.482117
##ZPD=6100
##XYDATA=(X++(Y..Y))
400.157 14837459 11914083 9772745 8518361 8210470 8809562 10147234 11907306 
404.014 13658299 14943997 15350880 14674358 12975905 10562683 7832789 
407.389 5158907 2799419 872234 -576083 -1525921 -1961505 -1887547 -1370248 
411.246 -566983 253052 782070 746753 10106 -1350594 -3063182 -4756097 
415.103 -6116737 -6934367 -7147514 -6816305 -6110889 -5267615 -4546758 
418.477 -4168077 -4187373 -4470156 -4789591 -4965337 -4884451 -4477633 
421.852 -3697513 -2509333 -931623 939271 2902511 4709502 6145540 7096326 
425.709 7574372 7673275 7501987 7129300 6581901 5862667 4988809 4028240 
429.566 3100859 2343520 1878449 1748785 1902143 2200030 2484925 2633676 
433.423 2603609 2436308 2230003 2094075 2099535 2258646 2526282 2833402 
437.280 3120782 3366710 3579669 3780533 3983864 4190803 4397806 4606450 
441.137 4835731 5116762 5472190 5892995 6323723 6676070 6851374 6786682 
444.994 6468212 5931252 5243209 4488088 3746242 3079401 2534747 2142487 
448.851 1923642 1893258 2053758 2390628 2861351 3402208 3941431 4417321 
452.708 4800485 5092724 5308711 5451555 5502322 5425384 5192539 4817806 
456.565 4382410 4033992 3950025 4237375 4868065 5685311 6496531 7143784 
460.421 7558828 7758168 7808599 7786369 7735400 7650714 7486481 7193571 
464.278 6757268 6219513 5671245 5220573 4937900 4821223 4779580 4678956 
468.135 4397505 3903650 3280034 2714089 2427511 2612775 3361101 4611439 
471.992 6132366 7571978 8596592 8977002 8673215 7806441 6598149 5288754 
475.849 4094428 3203355 2734528 2727759 3121984 3767231 4451967 4961896 
479.706 5148814 4952344 4424283 3701359 2980972 2442838 2196767 2262143 
483.563 2571310 3006962 3449330 3820710 4098442 4306540 4487753 4676511 
487.420 4882842 5089941 5261957 5360670 5355102 5228319 4982340 4640474 
491.277 4249052 3871455 3587287 3470338 3563500 3861426 4305302 4799882 
495.134 5228018 5490142 5523363 5317499 4915648 4401221 3871890 3407150 
498.991 3068490 2893171 2903411 3110270 3507981 4065463 4715733 5368620 
502.848 5933402 6341845 6572583 6648883 6626274 6564173 6511633 6485735 
506.705 6468717 6417062 6279885 6022626 5636435 5143081 4584449 4017238 
510.562 3495990 3074563 2796684 2686116 2744031 2946743 3252592 3608502 
514.419 3965740 4289306 4558833 4772679 4938604 5064932 5152168 5190192 
518.276 5164037 5063625 4889543 4656416 4384853 4097205 3810615 3538546 
522.132 3297662 3111204 3009331 3021275 3158929 3403610 3698018 3965071 
525.989 4126807 4144938 4038541 3877874 3746576 3707007 3773949 3911340 
529.846 4050380 4122024 4096469 4002289 3923243 3957982 4188026 4630427 
533.703 5230264 5868579 6412725 6756595 6860294 6761071 6554956 6358454 
537.560 6259346 6296727 6449346 6653022 6822696 6888099 6814954 6610563 
541.417 6317705 6000956 5728418 5545847 5469908 5480310 5529236 5551016 
545.274 5487222 5307772 5023232 4686023 4372536 4161062 4098978 4191003 
549.131 4395698 4645129 4863474 4996518 5031210 4992563 4928919 4887433 
552.988 4896815 4953316 5026115 5067849 5038216 4917994 4718077 4473592 
556.845 4237609 4064092 3991087 4036969 4193077 4428802 4695837 4940547 
560.702 5110928 5164775 5080823 4862502 4543197 4177053 3836120 3595138 
564.559 3510754 3615852 3903215 4327322 4805779 5244853 5555513 5672957 
568.416 5577026 5291874 4879792 4415647 3972896 3602254 3325073 3141040 
572.273 3038192 3005026 3036223 3135333 3307511 3551474 3854239 4186922 
576.130 4509916 4787051 4991289 5113040 5160080 5150022 5102748 5037579 
579.986 4971481 4917190 4884618 4879290 4900065 4941017 4992731 5046194 
583.843 5097954 5150659 5212256 5291035 5388313 5494135 5586893 5640262 
587.700 5631266 5548700 5398276 5201157 4988306 4789497 4629322 4521701 
591.557 4468336 4459164 4474161 4485042 4456285 4356706 4163972 3878442 
595.414 3529159 3178922 2909949 2797618 2892237 3194309 3652506 4169191 
599.271 4636422 4960589 5091115 5036473 4854595 4628016 4428300 4301487 
603.128 4252733 4255175 4261165 4223691 4112825 3922340 3670249 3395395 
606.985 3147348 2970963 2902344 2956485 3124720 3376161 3664368 3939927 
610.842 4155475 4279602 4297438 4211044 4033256 3783942 3487406 3171645 
614.699 2872558 2632943 2493689 2486858 2620642 2873759 3195811 3524816 
618.556 3804231 3997909 4101018 4132427 4121990 4092054 4049410 3984064 
622.413 3879479 3726256 3534270 3332652 3165304 3070458 3067722 3148950 
626.270 3283506 3428156 3544191 3612812 3634262 3625007 3606898 3599481 
630.127 3612578 3648396 3702997 3769971 3841369 3907094 3953903 3966810 
633.984 3933173 3849592 3726724 3588924 3465361 3384041 3359197 3387347 
637.840 3450399 3524282 3588088 3631589 3657083 3673323 3688260 3701660 
641.697 3702663 3674459 3602655 3482395 3323537 3149017 2989713 2874226 
645.554 2821829 2839906 2924360 3062784 3240975 3445857 3666205 3892183 
649.411 4114464 4321398 4500308 4637426 4719384 4737640 4690377 4585788 
653.268 4441757 4284655 4143934 4044795 4004965 4029912 4114665 4246978 
657.125 4413471 4604139 4812044 5030271 5248475 5447025 5601594 5686654 
660.982 5687124 5605186 5464103 5302607 5162897 5080521 5069860 5123769 
664.839 5218561 5325617 5415353 5464674 5459574 5400994 5309852 5221780 
668.696 5167524 5152905 5163165 5178925 5187744 5183083 5161220 5119913 
672.553 5057289 4973258 4871349 4760184 4652531 4562684 4502852 4478413 
676.410 4483769 4502752 4513934 4495386 4432651 4324712 4183911 4033256 
680.267 3897799 3799050 3747378 3742098 3775453 3838460 3927054 4041885 
684.124 4185249 4354698 4535563 4699722 4806750 4814992 4696339 4448585 
687.981 4103627 3722848 3387047 3166806 3107867 3217775 3466564 3793970 
691.838 4127844 4407614 4592720 4673128 4665124 4603034 4525752 4467332 
695.694 4453071 4494482 4593557 4745478 4943262 5179629 5448971 5746918 
699.551 6069529 6413733 6774499 7144255 7512371 7866122 8191393 8479098 
703.408 8726863 8941317 9136014 9327345 9528921 9747329 9983512 10234579 
707.265 10501102 10790647 11118014 11503397 11965272 12512307 13139940 
710.640 13828406 14550035 15274477 15977578 16649010 17292996 17929274 
714.015 18588652 19313182 20145428 21123640 22273778 23600774 25084372 
717.390 26676382 28312196 29910852 31393758 32698012 33775492 34598128 
720.765 35152348 35434364 35449572 35214292 34756536 34112956 33327338 
724.139 32445584 31508036 30553102 29613988 28718140 27887480 27134336 
727.514 26458450 25845958 25272922 24709972 24130518 23521822 22888760 
730.889 22253480 21646886 21101448 20638446 20262336 19959646 19704592 
734.264 19468296 19226660 18968332 18695630 18420578 18156234 17912698 
737.639 17689940 17478470 17262312 17025582 16757783 16457144 16131127 
741.013 15792573 15456721 15135675 14837733 14568366 14332040 14136096 
744.388 13989444 13900382 13872021 13898398 13962856 14038345 14095808 
747.763 14108850 14059495 13942977 13766122 13544487 13294403 13030565 
751.138 12762317 12494233 12229246 11972050 11730324 11515952 11340898 
754.513 11215382 11142626 11118218 11127261 11147385 11155681 11131272 
757.888 11064954 10961810 10841771 10733518 10666954 10665325 10734638 
761.262 10863955 11027432 11195390 11340727 11447330 11512686 11545214 
764.637 11558382 11563452 11569612 11580637 11600477 11634747 11690532 
768.012 11772197 11875568 11985470 12074345 12110799 12071244 11948481 
771.387 11757626 11530855 11309065 11121720 10979548 10869323 10763304 
774.762 10631131 10455448 10241060 10012670 9805041 9644938 9543078 9487026 
778.619 9447134 9386694 9278565 9112057 8896876 8657092 8422981 8220668 
782.475 8064522 7956621 7887715 7842066 7801886 7752333 7684236 7594737 
786.332 7486953 7369387 7252494 7144322 7048402 6961661 6874836 6776990 
790.189 6660390 6524145 6377518 6235816 6115934 6031596 5988056 5981740 
794.046 6002502 6038753 6080718 6122655 6162478 6198843 6228790 6247345 
797.903 6249866 6235244 6208960 6182441 6168762 6178240 6212758 6264724 
801.760 6319521 6361480 6382092 6381587 6370727 6363094 6370491 6396382 
805.617 6435524 6477562 6515400 6550415 6595525 6669811 6793312 6975567 
809.474 7210853 7477716 7744440 7981223 8165192 8287194 8350082 8362614 
813.331 8332148 8262879 8154792 8007851 7829144 7635539 7452637 7311796 
817.188 7238175 7242993 7320052 7447716 7594737 7729970 7832754 7892507 
821.045 7909513 7888087 7830832 7735367 7596120 7409460 7180365 6927757 
824.902 6685390 6492192 6385219 6387808 6501341 6703796 6954893 7207955 
828.759 7416234 7548242 7592546 7557648 7466019 7346269 7223452 7111550 
832.616 7012134 6916782 6814483 6698277 6571944 6450657 6358420 6318949 
836.473 6347863 6446723 6601345 6787322 6975701 7144592 7281638 7385598 
840.329 7463423 7524946 7578114 7625692 7666159 7696242 7711453 7708519 
844.186 7685180 7639113 7569517 7478289 7373701 7272171 7194615 7163826 
848.043 7194918 7286928 7420852 7562571 7673039 7717625 7680357 7566988 
851.900 7403797 7227630 7077701 6983950 6960247 7006174 7108619 7247070 
855.757 7396450 7532666 7635235 7688215 7685821 7632032 7540353 7429918 
859.614 7320759 7227697 7156785 7106800 7073492 7054868 7054228 7078004 
863.471 7131489 7211459 7303203 7381924 7420279 7399989 7318198 7190808 
867.328 7044597 6909678 6805530 6735326 6688519 6648480 6601883 6546749 
871.185 6491251 6451094 6439223 6460612 6511027 6581800 6666110 6763763 
875.042 6881367 7027288 7204216 7404202 7607416 7786470 7916836 7982505 
878.899 7981088 7922370 7823376 7702043 7573394 7450682 7346471 7274967 
882.756 7250270 7282851 7374476 7514394 7682887 7853841 8002890 8116407 
886.613 8191054 8234648 8259130 8276725 8294557 8315800 8341199 8370552 
890.470 8404603 8441967 8478895 8508866 8525423 8526876 8521165 8524172 
894.327 8555835 8630660 8747925 8886696 9007684 9068275 9031297 8881724 
898.183 8630998 8314483 7978793 7665890 7406393 7212537 7082989 7008666 
902.040 6981796 6997689 7054969 7151295 7279145 7424357 7568876 7693611 
905.897 7785863 7840447 7860319 7853807 7829752 7796354 7759787 7725889 
909.754 7700829 7692026 7707102 7751894 7829144 7937115 8070058 8220634 
913.611 8380517 8541913 8698568 8844019 8972740 9079440 9160175 9213037 
917.468 9239098 9240452 9219434 9177807 9116421 9036168 8939998 8833840 
921.325 8726491 8628395 8548063 8490518 8455143 8436663 8425244 8410582 
925.182 8383558 8338396 8273685 8192878 8103916 8018180 7948319 7907084 
929.039 7902124 7936373 8006097 8102769 8215502 8335694 8458758 8586284 
932.896 8724260 8878073 9049667 9233682 9416930 9580235 9705923 9781522 
936.753 9804838 9785554 9743128 9701213 9681223 9698333 9757394 9852931 
940.610 9971272 10095920 10211885 10308371 10381293 10432132 10466344 
943.985 10489527 10508060 10526731 10550223 10584513 10635918 10709506 
947.359 10807393 10924704 11050033 11167375 11262442 11327191 11365318 
950.734 11390896 11425490 11488019 11586626 11714495 11851869 11972322 
954.109 12053359 12086269 12078399 12051213 12028150 12026754 12049203 
957.484 12082794 12103951 12090323 12029104 11923142 11789526 11654453 
960.859 11544704 11479070 11466007 11502342 11577914 11678040 11788334 
964.233 11897328 11996642 12081465 12151584 12210468 12263839 12318273 
967.608 12378066 12441175 12499348 12538942 12545729 12509579 12429991 
970.983 12317421 12192645 12079625 12000049 11967554 11983392 12036394 
974.358 12105995 12169473 12204845 12197893 12144088 12048930 11925117 
977.733 11788640 11655508 11536129 11434845 11349808 11275534 11206270 
981.108 11138105 11070019 11002012 10933572 10860966 10777332 10674596 
984.482 10547304 10394901 10224640 10050004 9888217 9754716 9660691 9611365 
988.339 9606319 9640059 9703754 9786435 9873167 9946049 9986903 9978698 
992.196 9911945 9788910 9625967 9449336 9291902 9183289 9140751 9168060 
996.053 9253382 9375453 9508600 9631590 9730590 9800127 9841137 9856253 
999.910 9847576 9813786 9750820 9653949 9520182 9350874 9152967 8939051 
1003.767 8726491 8533938 8378051 8270950 8216042 8208579 8236100 8281892 
1007.624 8327284 8356028 8356805 8323501 8255990 8158473 8039072 7907995 
1011.481 7777665 7661539 7570899 7514528 7495313 7510314 7550164 7601481 
1015.338 7650174 7683426 7692262 7673848 7630481 7568471 7497942 7430829 
1019.195 7378723 7352369 7358670 7399079 7469255 7558828 7653513 7737053 
1023.052 7795747 7819529 7804787 7754559 7678064 7589781 7506404 7445794 
1026.909 7423717 7449637 7524406 7637427 7768153 7887007 7963437 7970795 
1030.766 7893586 7731724 7501819 7235210 6967587 6736841 6572919 6491721 
1034.624 6493874 6564778 6678526 6802804 6910183 6982671 7015906 7018734 
1038.481 7009407 7007723 7026816 7070225 7130075 7193335 7246093 7280897 
1042.339 7299531 7309943 7321366 7338653 7357626 7366388 7349369 7294240 
1046.196 7196569 7063254 6909476 6752691 6610496 6495791 6416625 6379603 
1050.054 6389892 6450489 6560675 6712680 6889378 7067227 7222778 7337945 
1053.911 7406696 7436761 7445053 7449435 7459345 7471884 7472727 7442356 
1057.768 7365950 7241713 7083460 6917085 6770730 6668297 6621161 6627553 
1061.626 6674824 6747677 6831918 6917253 6997487 7066655 7116433 7137316 
1065.483 7120610 7063388 6972233 6864131 6761374 6685255 6649623 6655646 
1069.341 6692490 6741451 6785504 6815459 6834308 6853999 6892139 6962065 
1073.198 7066756 7197883 7338687 7470300 7578350 7657256 7709362 7741472 
1077.056 7759214 7763026 7748150 7708046 7639653 7547669 7445323 7351829 
1080.913 7286052 7257784 7266982 7302428 7348089 7388024 7414380 7426515 
1084.770 7430559 7432750 7436323 7438446 7431671 7407336 7361636 7296666 
1088.628 7221431 7147826 7086828 7044765 7022135 7014794 7015030 7015401 
1092.485 7007588 6983782 6937520 6863256 6758816 6627957 6481262 6333910 
1096.343 6204355 6108978 6056862 6049168 6077862 6130216 6189701 6241463 
1100.200 6274002 6281734 6264859 6230437 6191347 6162478 6158210 6187281 
1104.057 6248959 6332196 6418811 6491452 6537330 6556369 6559430 6565485 
1107.915 6591387 6645956 6724726 6812665 6889244 6938530 6955398 6948160 
1111.772 6934894 6935467 6965230 7029106 7121721 7229753 7338889 7435682 
1115.630 7510517 7557952 7574001 7556165 7504415 7422166 7318434 7206877 
1119.487 7104645 7025435 6977923 6961897 6969910 6990146 7010114 7021260 
1123.345 7020890 7011562 7000113 6996207 7008666 7044361 7105622 7189461 
1127.202 7285951 7380644 7458536 7507921 7525923 7520159 7507786 7509674 
1131.059 7542612 7613586 7716647 7835386 7948286 8037621 8095139 8123766 
1134.917 8135245 8145069 8167117 8208343 8270072 8349239 8441865 8544582 
1138.774 8655875 8774533 8898871 9026696 9156757 9289430 9428510 9578778 
1142.632 9743195 9919234 10096022 10256733 10383295 10462033 10489459 
1146.007 10475270 10439361 10404607 10391575 10412311 10468652 10554161 
1149.382 10658329 10770233 10880942 10982980 11069475 11133175 11166798 
1152.757 11165777 11131340 11072228 11003541 10944514 10910535 10910842 
1156.133 10943800 10998613 11056865 11100304 11115533 11097347 11049864 
1159.508 10984476 10916142 10857059 10813848 10785416 10764527 10740582 
1162.883 10705126 10656258 10599961 10549035 10518143 10519501 10556843 
1166.258 10624849 10709472 10795097 10867013 10916618 10942407 10946688 
1169.634 10932519 10900036 10845304 10762556 10647226 10499609 10325438 
1173.009 10135838 9943676 9758173 9585113 9425395 9277515 9140718 9016073 
1176.866 8906548 8815885 8745592 8693768 8655368 8624374 8595037 8564824 
1180.724 8534512 8507175 8486396 8474435 8470854 8472408 8474165 8470009 
1184.581 8454907 8426494 8386226 8340085 8299049 8277164 8287227 8338126 
1188.439 8429703 8551713 8684133 8803138 8887102 8921362 8903978 8844594 
1192.296 8762192 8676765 8605920 8559080 8536945 8533093 8537453 8540223 
1196.153 8533668 8513562 8479908 8435177 8383760 8331573 8284492 8246804 
1200.011 8221748 8209795 8209761 8219216 8236268 8259232 8287194 8318469 
1203.868 8350117 8377477 8394705 8397205 8383558 8357007 8325089 8298137 
1207.726 8284864 8290909 8316949 8359270 8411596 8467847 8523935 8576990 
1211.583 8626401 8670207 8707155 8735518 8755228 8769495 8783695 8804794 
1215.441 8838303 8886121 8944768 9007548 9067361 9118892 9162747 9204847 
1219.298 9254566 9319965 9405181 9507076 9616278 9718968 9802025 9856286 
1223.155 9879505 9876760 9859371 9841679 9837137 9856456 9904420 9979545 
1227.013 10074928 10179660 10281974 10370535 10437664 10479378 10496655 
1230.388 10494381 10480057 10462441 10449033 10444723 10450730 10463390 
1233.763 10474150 10471537 10443297 10379155 10274815 10132819 9963441 
1237.139 9782064 9605844 9451130 9328428 9243498 9196589 9184372 9200684 
1240.996 9237744 9286452 9335977 9376503 9400136 9402675 9385847 9356967 
1244.853 9325855 9301549 9289159 9287399 9290988 9291495 9282255 9261099 
1248.711 9229519 9192324 9154625 9119264 9086884 9056704 9028793 9005011 
1252.568 8989857 8986643 8995573 9010931 9020877 9011236 8968681 8887102 
1256.426 8769664 8630018 8486937 8362547 8275780 8238430 8254437 8319684 
1260.283 8424028 8552558 8689982 8821937 8936988 9028590 9094260 9136454 
1264.141 9160141 9172865 9182002 9194254 9214628 9246477 9290582 9345254 
1267.998 9405553 9463897 9511004 9538404 9541588 9522283 9488280 9453467 
1271.855 9432540 9435926 9467520 9521740 9586874 9647343 9688744 9703008 
1275.713 9688304 9650121 9599408 9550225 9515034 9504231 9522993 9569870 
1279.570 9636874 9711412 9780031 9831477 9862286 9876590 9886420 9905132 
1283.428 9943032 10001549 10072961 10142180 10193364 10217652 10217007 
1286.803 10204660 10199707 10221825 10281431 10377356 10497775 10626411 
1290.178 10747511 10851827 10938058 11010643 11076647 11141028 11206032 
1293.553 11271283 11335013 11395930 11453487 11507751 11558382 11604832 
1296.929 11647169 11687502 11731413 11786598 11860040 11955054 12067326 
1300.304 12185727 12295230 12380930 12435276 12459486 12464157 12463509 
1303.679 12471659 12495631 12534099 12578335 12616401 12637856 12636697 
1307.054 12612921 12570456 12515376 12452222 12383793 12310228 12231154 
1310.430 12146064 12056016 11963229 11871618 11785031 11706701 11638184 
1313.805 11577778 11521531 11463285 11397563 11320730 11233607 11141572 
1317.180 11054758 10984238 10937990 10918078 10919675 10931432 10939824 
1320.555 10934830 10911521 10871973 10823156 10774615 10734842 10709574 
1323.931 10700813 10707401 10726250 10752809 10783038 10813950 10843844 
1327.306 10872754 10903774 10942237 10994535 11067198 11164792 11288116 
1330.681 11434437 11597788 11771516 11949809 12129504 12310364 12494301 
1334.056 12683809 12880463 13084242 13293651 13506920 13722757 13941301 
1337.432 14163242 14388412 14614968 14836533 15044490 15228731 15381500 
1340.807 15499710 15584464 15641034 15676243 15699258 15720559 15751239 
1344.182 15802333 15881337 15989713 16121568 16266087 16410310 16544048 
1347.557 16664296 16776415 16892076 17024136 17182398 17367480 17571962 
1350.932 17780784 17978344 18153124 18300602 18424276 18534430 18643816 
1354.308 18763296 18900600 19059270 19239576 19441198 19664826 19913160 
1357.683 20191486 20507750 20873154 21304354 21823288 22460624 23253412 
1361.058 24236312 25430988 26826078 28366768 29955756 31482600 32855838 
1364.433 34016228 34939384 35617644 36048264 36234864 36194308 35971368 
1367.809 35639832 35305680 35078704 35045048 35259248 35740560 36491884 
1371.184 37520812 38855328 40543904 42635180 45142700 47995044 51011024 
1374.559 53940340 56522488 58574588 60012744 60812140 60968740 60472520 
1377.934 59314052 57515948 55161016 52398252 49399052 46334296 43334028 
1381.310 40478392 37819984 35390472 33207428 31272392 29564154 28038408 
1384.685 26634492 25293222 23970508 22653694 21368634 20167502 19103760 
1388.060 18205504 17466914 16861074 16357357 15930418 15564511 15247297 
1391.435 14966048 14704039 14443010 14166768 13867813 13550332 13230588 
1394.811 12926885 12650785 12400227 12165044 11934279 11704385 11481452 
1398.186 11278118 11106593 10972106 10870071 10790579 10724110 10666683 
1401.561 10618873 10582612 10556164 10533894 10506568 10467498 10416859 
1404.936 10364766 10324862 10307251 10311526 10326694 10337348 10331715 
1408.312 10307489 10272576 10241263 10227286 10237871 10270270 10314852 
1411.687 10362730 10411870 10468007 10540888 10636733 10752877 10877443 
1415.062 10994432 11089699 11159251 11209670 11258021 11322124 11413006 
1418.437 11527861 11651866 11770801 11883843 12002978 12144906 12320352 
1421.813 12532974 12779685 13057027 13361984 13695262 14057784 14447292 
1425.188 14855870 15271869 15685964 16097292 16518096 16973828 17498030 
1428.563 18122620 18865646 19721374 20663706 21657612 22673592 23694054 
1431.938 24711516 25723950 26729342 27727318 28723840 29734576 30790528 
1435.314 31931818 33189368 34550368 35945776 37278632 38478500 39535196 
1438.689 40486760 41389564 42301812 43268392 44316308 45452140 46666168 
1442.064 47937912 49243524 50565060 51889324 53208012 54518284 55821816 
1445.439 57129388 58462820 59852456 61327136 62900088 64560636 66277192 
1448.815 68019312 69781600 71588112 73484536 75513760 77691800 79987336 
1452.190 82324256 84612064 86765856 88746904 90565440 92264248 93896680 
1455.565 95496584 97047256 98458560 99611744 100447192 100999264 101361864 
1458.940 101603792 101752448 101815360 101800072 101720328 101592152 
1461.833 101420528 101189200 100850656 100332160 99546568 98424968 96948160 
1465.209 95136992 93021096 90607080 87866216 84776160 81349384 77654008 
1468.584 73782480 69838416 65892668 61934028 57889376 53647552 49150380 
1471.959 44501176 40015276 36087436 32952450 30587586 28791814 27325368 
1475.334 26022422 24801104 23653954 22607932 21688542 20894916 20202316 
1478.710 19575390 18984254 18412072 17855868 17320444 16812852 16336128 
1482.085 15890067 15473751 15089703 14742738 14438215 14175360 13945475 
1485.460 13731306 13512731 13273767 13008988 12724340 12431560 12140612 
1488.835 11852073 11559199 11257171 10954130 10668415 10419743 10215956 
1492.211 10052005 9913064 9781894 9644226 9493291 9331441 9170700 9025782 
1496.068 8906751 8809798 8718107 8611327 8479436 8328432 8174342 8033706 
1499.925 7916194 7821656 7742753 7670375 7598210 7525114 7454019 7388968 
1503.783 7332621 7285480 7246497 7216478 7202835 7221162 7283155 7373195 
1507.640 7452367 7487998 7474075 7423986 7360558 7307853 7285345 7306236 
1511.498 7371173 7468918 7579295 7682718 7764105 7814840 7830764 7807992 
1515.355 7740865 7624107 7460120 7265567 7067800 6895135 6764167 6677482 
1519.213 6627721 6601480 6582102 6552231 6499693 6422645 6329674 6230841 
1523.070 6131258 6030151 5925575 5817432 5708979 5605320 5510611 5425015 
1526.927 5343428 5259207 5169335 5076029 4986597 4909180 4850842 4813518 
1530.785 4796197 4794690 4804506 4821324 4840489 4855165 4857577 4841092 
1534.642 4804874 4753618 4695971 4640775 4598413 4578857 4589874 4635384 
1538.500 4710675 4798977 4873995 4916486 4929153 4932873 4942759 4958612 
1542.357 4968867 4960924 4926137 4864346 4782127 4690143 4598112 4512260 
1546.214 4435363 4368654 4315274 4280707 4271170 4291515 4338433 4400518 
1550.072 4458930 4498400 4514168 4511423 4500140 4489260 4482129 4475969 
1553.929 4464353 4443631 4418158 4401890 4413003 4469407 4582808 4750402 
1557.787 4940179 5070095 5043344 4853020 4614286 4431313 4329698 4286495 
1561.644 4272006 4263540 4248048 4221449 4186788 4151394 4123830 4109915 
1565.502 4109748 4119849 4135973 4155509 4177454 4200036 4218103 4220913 
1569.359 4196457 4138983 4054728 3958752 3866708 3789123 3729699 3688227 
1573.216 3662463 3650167 3649565 3660224 3681009 3706907 3729799 3741295 
1577.074 3739190 3729565 3722614 3727493 3749517 3787686 3834816 3879813 
1580.931 3907863 3906860 3871488 3804131 3713189 3610072 3506378 3411425 
1584.789 3332852 3276896 3247685 3247484 3274559 3323069 3381603 3436472 
1588.646 3474346 3486537 3472041 3437140 3393425 3352018 3322168 3308846 
1592.504 3312686 3332185 3365475 3411024 3467332 3532032 3601753 3671953 
1596.361 3738722 3800421 3857615 3911708 3963399 4010582 4048975 4073056 
1600.218 4079009 4066801 4040447 4006369 3970756 3937386 3907094 3878743 
1604.076 3851965 3828365 3811652 3805167 3809646 3821412 3832343 3833245 
1607.933 3817435 3784477 3741095 3698318 3665236 3645389 3635632 3627580 
1611.791 3611743 3581741 3535974 3477285 3410322 3339497 3268583 3200751 
1615.648 3139571 3090747 3059647 3047735 3050337 3059247 3066154 3067122 
1619.505 3062317 3055943 3054141 3062250 3083039 3111671 3135900 3137903 
1623.363 3105798 3039927 2954283 2866221 2791449 2737962 2706387 2692184 
1627.220 2688550 2688783 2688850 2687950 2687583 2689150 2692651 2697318 
1631.078 2701786 2706521 2712488 2721624 2735295 2751833 2765605 2766572 
1634.935 2742230 2686183 2606242 2521483 2448470 2393226 2352515 2321101 
1638.793 2295718 2277765 2271070 2281162 2311441 2360977 2424179 2493689 
1642.650 2561811 2623742 2678315 2726526 2769740 2806922 2830634 2828300 
1646.507 2787380 2706420 2600008 2490057 2393693 2317103 2260445 2221977 
1650.365 2202628 2207890 2250419 2347018 2504987 2693384 2832335 2856048 
1654.222 2778943 2657578 2535581 2431110 2346785 2277432 2215383 2153509 
1658.080 2088448 2022498 1963648 1922677 1909698 1930032 1981256 2051228 
1661.937 2118780 2162933 2170192 2142820 2095507 2047399 2013111 2000096 
1665.795 2010614 2043970 2097937 2168893 2251419 2335758 2406654 2447737 
1669.652 2446637 2402689 2326964 2235299 2141888 2054490 1975963 1905937 
1673.509 1842510 1786313 1740701 1711793 1704209 1717581 1745159 1778494 
1677.367 1810568 1837186 1856719 1869896 1879148 1888865 1904805 1933493 
1681.224 1982021 2056954 2163233 2300315 2450802 2570443 2605175 2533781 
1685.082 2391461 2234533 2103830 2015841 1975297 1980823 2026793 2103830 
1688.939 2197566 2292887 2374936 2434575 2468263 2478327 2470029 2449769 
1692.797 2425145 2404088 2395925 2412151 2462865 2551745 2666846 2784546 
1696.654 2881497 2949746 2996185 3036090 3086009 3159630 3260604 3374324 
1700.511 3470471 3525718 3539180 3525685 3502069 3480492 3470605 3479957 
1704.369 3513526 3572888 3652472 3740159 3819975 3880181 3914449 3922440 
1708.226 3908097 3877205 3836354 3791396 3746810 3703064 3658052 3605996 
1712.084 3539916 3454373 3347143 3220846 3085675 2956184 2847310 2769473 
1715.941 2724558 2704854 2696285 2685449 2666780 2643877 2624042 2611409 
1719.798 2604542 2598475 2586875 2564677 2529615 2483026 2430477 2379367 
1723.656 2337790 2310308 2298283 2300681 2316204 2344819 2388562 2449903 
1727.513 2530348 2628676 2740163 2855514 2963957 3055910 3125488 3173448 
1731.371 3204656 3226921 3248052 3274692 3310315 3353254 3395395 3427188 
1735.228 3443986 3446357 3437474 3421343 3402842 3388182 3384876 3400371 
1739.086 3437073 3489310 3541920 3577899 3582609 3548801 3476484 3371953 
1742.943 3245314 3108634 2973599 2848144 2736429 2639243 2555045 2481359 
1746.800 2414783 2352548 2291288 2230003 2169893 2115217 2071369 2041573 
1750.658 2023963 2011081 1992207 1959321 1909531 1845871 1774335 1700915 
1754.515 1630534 1566450 1510155 1462810 1426042 1401442 1390440 1392235 
1758.373 1403670 1419526 1433920 1441201 1437843 1423881 1402706 1379803 
1762.230 1358530 1338056 1314060 1281724 1239522 1189615 1139116 1097758 
1766.088 1074473 1076333 1103770 1150744 1205696 1257433 1299039 1329681 
1769.945 1351650 1366740 1373355 1365344 1335264 1280163 1206261 1126193 
1773.802 1052019 990477 943754 910649 889399 878409 877048 884352 899194 
1778.142 919448 941097 959760 971249 973043 966534 955243 944219 936880 
1782.482 933991 933859 933294 928313 915596 893682 862938 825224 783398 
1786.821 741111 701550 668330 644471 631728 631496 643376 667102 702678 
1791.161 750836 812045 884452 962084 1035180 1092443 1123968 1123635 1089155 
1795.500 1023755 935187 835615 737493 651837 585608 541316 517265 510531 
1799.840 518326 538695 571109 615370 670653 734838 803647 871304 931136 
1804.180 975998 999411 997352 968593 916293 847434 773108 705798 656218 
1808.519 631894 635279 662655 705665 753657 795514 822436 830337 819481 
1812.859 793489 757906 718841 681472 650477 629439 620447 625026 643608 
1817.198 675730 720135 774004 832528 888204 931501 953018 945514 906930 
1821.538 840230 754155 659204 566132 483495 415036 360913 319065 288030 
1825.878 269198 266280 284018 326327 393711 482036 580697 674503 747384 
1830.217 789141 800526 791232 773141 754786 739485 725877 709946 686250 
1834.557 651506 605416 551767 498091 454074 429132 429132 454671 499318 
1838.896 552895 602927 639958 659437 662523 654625 643674 637104 638199 
1843.236 645101 651174 649083 636872 620082 608502 613014 638265 682633 
1847.576 737493 789738 824959 832561 809124 759333 693983 624063 558833 
1851.915 501740 450525 398553 338960 267805 187479 107367 42347 9178 19980 
1856.737 77938 173756 287897 393943 468834 498821 482666 431818 365390 
1861.077 304475 263827 248377 253814 271121 290218 305371 317075 330869 
1865.416 354612 394938 454737 530634 613976 691228 749110 780344 786385 
1869.756 775896 760827 749110 742804 738389 728034 702678 655786 585375 
1874.095 495669 396364 298010 209689 134511 69620 7620 -57053 -124632 
1878.435 -186239 -226279 -227273 -176667 -73518 69686 230475 384127 507545 
1882.775 585973 611986 586702 516535 411985 288428 164806 63820 10934 26739 
1887.596 121486 286173 491921 690498 832295 886710 852314 756479 642015 
1891.936 550605 507180 517497 567890 633487 686450 705233 681505 619982 
1896.276 532193 429729 321452 211844 104583 5500 -77791 -137087 -166267 
1900.615 -163982 -134370 -84748 -23259 42247 106207 165038 215590 255008 
1904.955 280271 289721 283786 264954 237901 207435 177104 149427 126325 
1909.294 110714 107102 119994 151117 197722 250863 296684 321353 313494 
1913.634 268402 189601 88377 -21006 -124334 -209687 -269230 -297474 -292508 
1917.974 -256878 -194916 -114959 -24452 72072 172331 275464 379616 478918 
1922.313 561686 611919 613810 557705 443924 281896 88940 -113104 -304461 
1926.653 -467832 -591304 -668593 -694894 -665848 -576679 -424835 -212734 
1930.510 48709 339690 635976 910781 1137821 1296314 1369831 1349058 1232610 
1934.850 1026910 748380 421371 81219 -233068 -485142 -649504 -719075 -706174 
1939.189 -636005 -533229 -419406 -307474 -201308 -104558 -25148 25149 30650 
1943.529 -17759 -117046 -250089 -390607 -507581 -575488 -583131 -531873 
1947.386 -437513 -322042 -208230 -113038 -44794 -1855 23061 42314 68427 
1951.726 110482 171071 246852 326890 398089 449596 479548 494807 510033 
1956.066 539657 591679 659569 722857 750073 713066 592011 386249 112836 
1960.405 -196639 -507283 -791943 -1033446 -1223604 -1359876 -1442775 
1963.780 -1473222 -1456545 -1402781 -1321625 -1219937 -1096478 -937938 
1967.156 -727213 -457075 -137484 196496 495669 713696 818021 804709 702147 
1971.495 563710 443924 390494 418817 516800 650278 780875 873894 905801 
1975.835 863203 740148 537501 265750 -50526 -366903 -632664 -798888 -841153 
1980.174 -770047 -628693 -474088 -358163 -311878 -333531 -393950 -448337 
1984.032 -460054 -413415 -315189 -189849 -67190 32074 101136 147769 189170 
1988.371 240586 311936 406877 520582 644404 765606 866723 925856 925690 
1992.711 855302 719073 539657 354878 204717 124171 129805 216949 363732 
1997.051 535942 698928 825125 895242 898994 833756 700819 507180 272745 
2001.390 27966 -187696 -333995 -385773 -343530 -231147 -86305 51990 163646 
2005.730 254742 354811 502470 724051 1022393 1371061 1725631 2034982 2262243 
2010.069 2385730 2402589 2319102 2145917 1895321 1582977 1237129 897069 
2013.927 605316 397127 286637 261870 287665 327653 356502 374576 409597 
2018.266 500413 672014 919846 1198287 1432823 1542707 1461779 1167887 689735 
2022.606 99844 -516318 -1071590 -1501785 -1776289 -1890978 -1865014 -1727151 
2026.464 -1505747 -1223208 -897666 -548022 -199388 116084 365323 524828 
2030.321 591182 584280 545828 532658 597054 769921 1048133 1392999 1739171 
2034.661 2012645 2157405 2142654 1975830 1692367 1346066 988584 653596 
2038.518 354911 90697 -147222 -364387 -555368 -708556 -807454 -839401 
2042.375 -803022 -709383 -580550 -449263 -350714 -310520 -341808 -436685 
2046.233 -564303 -676765 -722449 -657974 -463728 -156000 219966 601036 
2050.090 929143 1162438 1285579 1308444 1257433 1160578 1038800 900156 
2053.948 739617 546624 315384 51758 -225054 -484944 -697573 -836127 -885729 
2058.287 -843634 -720365 -535414 -314030 -84019 131628 316247 461935 569649 
2062.627 646097 700687 739584 761159 757010 712734 613678 454240 239127 
2066.966 -13319 -276481 -521150 -719704 -852298 -905569 -873395 -756288 
2070.824 -563310 -313368 -33066 240122 469398 623433 684027 653098 552662 
2075.163 418452 285941 184993 127651 110018 115984 126689 127385 113565 
2079.503 89901 66803 54906 60175 81318 111178 139417 155293 151183 123375 
2084.325 71111 -3578 -96740 -203163 -315785 -426292 -522838 -593157 -623664 
2088.664 -602522 -523599 -389713 -214191 -20343 160332 299436 375869 383331 
2093.004 333025 251858 176640 140312 164607 251361 384558 532624 661394 
2097.344 744198 765905 726839 639294 521411 389532 258588 138721 37012 
2101.683 -39295 -84185 -93659 -67290 -11331 63091 140444 207302 254941 
2106.023 285278 308090 339690 395734 483860 598946 721828 823465 870507 
2110.362 836246 708585 492651 210717 -103332 -410568 -680007 -889565 
2114.220 -1030966 -1106393 -1124470 -1094792 -1026471 -928978 -812216 
2117.595 -689038 -574296 -479979 -412951 -370181 -338862 -299097 -231512 
2121.452 -123837 23360 195601 370530 520682 623898 667899 650610 578275 
2125.792 461835 311803 136169 -57715 -261978 -467038 -657378 -816053 -925044 
2130.132 -966999 -929871 -808545 -609073 -349820 -63480 206208 414638 522639 
2134.471 510862 385387 181247 -48969 -250487 -380874 -425398 -397062 -328300 
2138.811 -253666 -197003 -162160 -135463 -95514 -27964 64980 161956 234785 
2143.150 260677 235249 177933 124436 111874 161028 267672 404025 535444 
2147.490 635876 704039 769025 876052 1064907 1346798 1689173 2020235 2241893 
2151.830 2261744 2026060 1538185 862573 103721 -604474 -1148992 -1459385 
2155.687 -1527638 -1401493 -1171297 -938963 -779970 -728536 -763796 -829843 
2159.544 -859705 -810397 -677790 -493516 -308136 -169679 -112541 -142718 
2163.402 -242639 -376835 -507548 -601529 -634947 -597558 -490371 -321215 
2167.259 -105287 136467 382767 611455 803614 949499 1046738 1101445 1121211 
2171.599 1109019 1057965 953351 776427 515838 178065 -208396 -600768 -949180 
2175.938 -1211478 -1366548 -1414934 -1379760 -1292423 -1186762 -1088446 
2179.314 -1012091 -960817 -931458 -918034 -910231 -895186 -857225 -777555 
2183.171 -642060 -444861 -193426 90995 372586 612715 778684 847699 814535 
2187.511 687843 488637 244332 -14015 -254063 -449561 -581113 -639678 -628826 
2191.850 -563178 -464390 -355746 -258169 -183921 -139074 -125261 -144274 
2195.708 -200315 -299560 -443868 -626146 -827495 -1019529 -1168687 -1249111 
2199.565 -1249309 -1177510 -1057972 -922564 -800839 -708787 -645368 -595705 
2203.423 -539583 -458730 -344457 -202070 -47975 93481 197424 241813 214297 
2207.762 114161 -42807 -230882 -414242 -556659 -632498 -631274 -560498 
2211.620 -442643 -307375 -180708 -77294 -530 54575 91658 107003 89040 22299 
2216.441 -102802 -280918 -489908 -695059 -862748 -969677 -1010967 -999497 
2220.299 -958238 -905073 -844163 -765483 -651224 -488253 -281250 -53640 
2224.156 153139 295755 344996 292009 151879 -42906 -251679 -440757 -585911 
2228.496 -675971 -711070 -698036 -649603 -583859 -524791 -498844 -528729 
2232.353 -626311 -786155 -983496 -1179063 -1333154 -1414373 -1409848 
2235.729 -1327736 -1192842 -1033908 -874751 -730090 -603448 -492523 -394381 
2239.586 -309957 -242705 -196804 -173024 -167029 -170341 -173355 -169248 
2243.443 -155403 -132317 -102173 -64871 -18488 39099 107500 180584 245327 
2247.783 287466 294064 261008 196065 118404 54144 28164 57723 145283 278017 
2252.605 428070 561487 644338 651107 572867 419878 220065 9012 -174216 
2256.944 -301978 -362964 -363791 -324426 -269660 -219093 -180443 -149077 
2260.802 -111912 -57450 17395 103854 183501 234055 239326 196363 115852 
2265.141 18621 -71232 -132913 -156232 -140134 -91572 -20542 61832 146510 
2269.481 225834 293169 344432 378820 399780 415799 437888 476629 537501 
2273.821 617527 705200 784161 835847 846039 808427 725678 607539 469133 
2278.160 327421 195998 85593 596 -60200 -102040 -133642 -162492 -192333 
2282.500 -221014 -240519 -238334 -204123 -133443 -31277 88576 206341 302055 
2286.839 363831 389300 387542 374708 369535 387310 435632 514279 615204 
2291.179 725943 830868 915297 965936 973707 935917 857360 750770 633919 
2295.519 527814 449729 408900 404456 426147 458485 484889 494177 482533 
2299.858 452647 411819 368474 329112 297579 275398 263362 262169 272646 
2304.198 294827 327520 368043 413046 459845 507412 555781 605648 654625 
2308.537 697534 725346 728897 701815 644637 566265 482069 411885 371591 
2312.877 370364 407706 474340 555814 636407 704835 754022 782834 793323 
2317.217 789771 776062 754753 727238 693186 651638 602031 544733 482467 
2321.556 420807 367081 329742 315981 328515 365390 421072 487177 555947 
2325.896 623134 687644 751633 817689 886577 954513 1013592 1052285 1060755 
2330.235 1034184 976164 898031 817556 753524 719471 721529 756313 812510 
2334.575 873794 924030 950694 949333 923266 884784 850090 834984 850056 
2338.915 896604 966268 1041956 1102575 1131907 1120413 1071550 999245 925723 
2343.254 872234 854671 878077 935386 1010271 1083242 1139681 1172471 1182904 
2347.594 1177787 1165229 1151840 1140146 1128917 1114068 1089188 1047801 
2351.451 986260 905237 810385 711373 619086 543174 490362 464356 465650 
2355.791 494044 548150 626220 725346 840628 964907 1089952 1206593 1309507 
2360.130 1397287 1474446 1548593 1629869 1724700 1833460 1948138 2052859 
2363.988 2126305 2147316 2101666 1985483 1808904 1594882 1375349 1183303 
2367.845 1045609 977194 977891 1033519 1120214 1213106 1290066 1338123 
2371.703 1353279 1340981 1311069 1273383 1235169 1198918 1162671 1121908 
2375.560 1073310 1016182 954446 895475 848629 821340 816128 828677 847832 
2379.900 859917 850554 811780 744596 659934 575190 510431 481970 495935 
2384.239 547586 621442 697733 755881 782734 774568 736498 679348 615436 
2388.579 554255 500645 455500 418552 390991 377030 383165 414439 472682 
2392.918 553094 644803 732714 802418 843715 853376 835615 800493 760694 
2397.258 727503 709482 710411 729926 763515 804609 845309 876816 891856 
2401.598 885415 855667 805174 740646 670819 604453 548416 506119 477193 
2405.937 458253 445583 436826 432415 434903 448833 477823 523236 582257 
2410.277 647988 711141 760594 787182 785655 756180 704570 640986 579105 
2414.616 530767 504924 504957 528046 566630 610791 651804 683662 704603 
2418.956 716318 721927 724450 724981 723188 718243 710411 701948 696007 
2423.296 696206 703906 717347 731121 738854 735834 720832 697567 672910 
2427.635 654160 645632 646694 652070 654957 649747 635445 616564 600737 
2431.975 595329 603724 622935 645267 661428 664680 654160 635644 618555 
2436.314 611289 617825 635213 654758 666206 662125 641617 611322 581825 
2440.654 564307 566331 588395 624329 664082 697368 716119 716584 699326 
2444.994 667534 626054 580166 535676 499020 477060 476032 500081 549046 
2449.333 618157 698098 776792 842786 887473 906830 902215 879239 846039 
2453.673 811248 782800 765839 763117 773905 794850 820809 845608 863602 
2458.012 871935 869976 859983 846637 834885 828378 829208 836677 849127 
2462.352 863569 877446 888536 895442 897069 892752 882759 868482 852779 
2466.692 839997 834254 839200 855601 881497 911744 940068 960357 968726 
2471.031 963778 947041 922237 893217 863701 836445 812576 792261 774502 
2475.371 757839 739850 718210 690897 657412 619219 580299 546657 525425 
2479.710 523468 545198 592044 661660 747915 842885 936747 1020201 1085600 
2484.050 1127389 1143003 1133535 1103505 1059061 1009208 962715 926686 
2487.907 906199 902912 914932 937777 965338 991341 1009839 1017677 1013459 
2492.247 998348 975400 948735 923233 902946 891623 891590 903975 928977 
2496.587 966202 1014256 1071018 1133901 1199383 1263348 1321738 1370862 
2500.444 1407925 1431793 1442298 1441167 1430363 1412479 1389576 1363716 
2504.302 1335763 1306882 1278102 1250388 1225167 1203969 1187323 1175794 
2508.159 1168485 1163867 1160412 1156923 1153368 1150877 1151807 1157255 
2512.016 1168020 1181342 1192805 1195629 1183602 1152770 1102840 1037970 
2515.874 965671 896272 839034 800759 785224 791497 815265 849027 884253 
2520.213 911114 921208 908490 871437 813340 743501 675166 622836 599045 
2524.553 611256 659437 736796 831100 929874 1020865 1096463 1153667 1192506 
2528.893 1215664 1225865 1225500 1216661 1200912 1179814 1154697 1126326 
2532.750 1094403 1058696 1019670 979917 944949 923167 923001 950628 1007215 
2537.090 1086962 1177987 1264544 1332340 1371360 1378606 1358331 1320807 
2540.947 1277006 1237262 1207889 1190612 1183502 1182904 1185329 1188552 
2544.804 1192007 1196592 1203603 1214269 1228955 1247231 1268266 1291030 
2548.662 1314160 1336860 1358331 1377576 1393963 1406528 1414972 1419194 
2552.519 1419958 1418728 1416800 1414905 1412844 1409287 1401941 1389509 
2556.377 1372457 1354143 1340250 1337890 1352548 1385853 1434087 1488410 
2560.234 1538085 1572402 1585338 1577690 1556507 1531767 1514544 1511451 
2564.092 1523654 1547396 1575728 1602265 1624248 1642940 1662597 1688442 
2567.949 1723003 1764721 1807606 1843509 1864838 1867833 1853824 1829833 
2571.806 1806076 1792268 1796194 1820217 1861511 1912959 1965911 2011580 
2575.664 2044236 2061348 2063911 2055089 2039276 2020468 2001893 1985516 
2579.521 1972535 1963648 1959654 1961152 1968641 1982520 2002392 2027725 
2583.379 2057053 2088315 2119346 2146483 2166596 2176486 2174022 2159470 
2587.236 2135728 2108591 2084952 2072168 2075298 2095373 2129768 2172057 
2591.094 2215183 2252884 2282028 2303180 2320201 2338457 2362809 2396058 
2594.951 2437740 2484692 2531614 2572810 2602809 2618009 2616942 2600808 
2598.808 2573576 2541113 2511052 2490490 2485258 2497855 2527215 2568443 
2602.666 2614409 2657678 2692217 2715023 2725925 2727959 2724659 2719624 
2606.523 2714589 2710021 2705087 2698785 2690984 2682616 2676148 2674081 
2610.381 2678515 2690584 2709921 2734728 2762937 2792582 2822630 2852513 
2614.238 2882297 2911617 2939271 2962923 2979871 2987811 2985776 2974900 
2618.095 2957419 2937103 2917121 2899275 2883632 2869056 2854247 2839105 
2621.953 2825165 2814926 2811591 2816560 2829267 2846709 2864686 2879129 
2625.810 2888034 2891403 2891237 2889869 2888168 2884832 2876961 2861384 
2629.668 2836471 2803621 2767739 2735095 2712189 2702986 2707821 2723525 
2633.525 2744731 2766439 2785380 2800920 2814826 2830267 2850045 2875660 
2637.383 2906880 2942240 2979938 3018306 3056377 3094518 3133230 3172880 
2641.240 3213002 3251924 3286711 3313521 3328679 3329447 3315657 3289215 
2645.097 3254996 3219444 3188635 3167573 3158662 3161566 3174382 3194009 
2648.955 3218109 3244981 3273591 3302803 3330449 3353855 3369950 3376862 
2652.812 3375259 3368280 3361401 3359765 3366777 3382372 3403343 3423981 
2656.670 3438977 3445556 3444320 3439077 3435436 3439043 3452703 3476684 
2660.527 3508015 3542922 3576696 3605695 3627613 3641145 3645923 3642715 
2664.385 3633460 3621165 3610373 3606163 3612678 3632625 3666205 3710917 
2668.242 3762284 3815429 3865906 3910771 3948352 3978580 4001119 4016301 
2672.099 4023592 4023090 4015030 4000985 3983162 3964235 3947082 3934075 
2675.957 3926385 3923978 3925516 3928793 3930331 3927756 3918227 3900775 
2679.814 3876169 3847085 3817869 3793067 3777057 3772445 3779864 3797680 
2683.672 3823117 3852835 3883156 3911708 3936383 3955709 3969051 3975972 
2687.529 3976607 3971157 3960190 3943839 3922105 3894790 3861994 3824755 
2691.386 3785313 3747311 3715161 3692838 3682178 3682613 3690967 3702362 
2695.244 3711518 3714727 3710416 3699555 3684684 3668712 3654544 3643818 
2699.101 3637737 3637035 3642114 3653274 3669781 3690265 3711485 3730033 
2702.959 3742732 3747812 3745506 3738588 3730701 3725755 3726056 3732138 
2706.816 3742933 3756134 3770072 3783809 3798047 3814359 3834516 3859654 
2710.674 3889775 3924078 3960557 3997808 4034461 4070246 4104931 4138849 
2714.531 4171968 4203683 4232992 4258555 4279401 4295898 4309083 4321599 
2718.388 4337362 4359685 4391246 4432685 4482397 4536634 4590878 4640809 
2722.246 4683478 4717977 4745009 4765946 4782127 4793584 4799447 4798107 
2726.103 4788592 4771205 4748124 4723135 4700492 4683745 4675372 4675372 
2729.961 4682473 4693291 4704076 4710273 4707560 4692018 4661138 4614018 
2733.818 4552405 4480455 4404233 4330434 4265080 4212114 4172905 4146410 
2737.676 4129784 4120017 4113528 4108009 4100683 4089411 4072353 4047872 
2741.533 4016067 3978848 3940127 3904720 3877339 3861092 3855944 3859821 
2745.390 3868547 3877907 3884660 3887736 3887569 3885931 3884460 3884660 
2749.248 3886900 3891313 3897732 3905723 3914951 3924246 3931969 3936215 
2753.105 3935547 3930230 3921972 3914817 3912744 3918695 3933239 3953669 
2756.963 3974501 3990284 3997073 3994565 3986840 3980286 3982392 3998644 
2760.820 4030313 4074494 4125536 4176016 4219475 4252499 4274750 4288269 
2764.677 4296568 4303160 4310255 4319625 4331572 4346130 4363132 4382611 
2768.535 4404166 4427463 4451799 4476371 4500643 4524748 4549458 4575743 
2772.392 4604943 4637661 4674166 4714058 4756734 4801557 4848195 4896480 
2776.250 4946312 4997121 5047836 5097250 5144154 5187945 5229326 5270174 
2780.107 5313776 5363354 5421962 5491215 5570951 5659261 5752827 5848025 
2783.965 5941665 6031663 6117614 6200826 6283482 6368272 6457383 6551895 
2787.822 6651878 6755451 6860328 6963614 7062816 7156583 7244543 7327836 
2791.679 7408381 7488806 7571742 7659010 7751658 7849590 7951963 8056792 
2795.537 8161917 8265074 8364574 8459535 8550496 8639312 8728757 8822174 
2799.394 8922613 9031703 9149922 9275688 9406433 9539556 9672786 9806261 
2803.252 9941134 10080117 10226235 10381530 10546014 10718370 10895586 
2806.627 11074947 11254349 11433893 11615076 11800829 11993508 12194724 
2810.002 12403908 12619265 12837938 13057471 13276535 13495230 13714412 
2813.377 13935279 14158380 14383309 14609073 14834613 15060441 15288274 
2816.753 15521996 15766701 16027667 16309053 16613375 16941374 17291550 
2820.128 17661780 18049354 18451724 18866616 19292468 19728240 20174202 
2823.503 20631878 21104474 21597330 22117312 22671950 23269386 23916518 
2826.878 24618544 25379100 26199624 27080306 28020878 29021546 30084002 
2830.254 31211612 32410200 33687940 35054424 36520360 38096684 39793524 
2833.629 41620884 43588292 45704996 47981720 50429764 53060700 55885688 
2837.004 58913404 62148340 65589400 69230680 73060360 77062656 81221336 
2840.379 85518728 89939520 94472776 99110704 103849968 108690368 113632664 
2843.755 118675528 123814168 129035384 134320000 139640592 144961136 
2846.648 150242096 155434608 160482496 165324128 169885520 174087040 
2849.541 177847424 181082992 183720304 185697600 186968144 187506832 
2852.434 187308704 186393536 184801472 182596272 179857248 176668736 
2855.327 173120688 169295136 165262992 161088784 156826192 152524112 
2858.220 148230848 143989776 139845024 135838608 132006880 128385496 
2861.113 125006064 121894384 119072368 116553968 114343248 112433712 
2864.006 110809856 109448488 108322704 107407440 106679688 106119368 
2866.899 105709032 105427432 105246904 105133384 105041416 104921032 
2869.792 104721952 104394632 103901264 103215832 102327408 101240616 
2872.685 99975056 98562776 97041616 95456208 93850616 92264744 90736736 
2876.061 89298208 87975792 86792968 85767528 84912960 84239008 83749800 
2879.436 83445896 83324456 83381336 83611040 84008448 84568504 85285184 
2882.811 86152328 87162232 88306152 89575616 90962200 92458160 94056792 
2886.186 95751000 97532224 99391664 101317720 103299512 105326992 107391656 
2889.562 109487448 111610592 113757160 115923704 118104712 120292792 
2892.455 122479912 124656832 126815128 128948304 131052568 133127688 
2895.348 135177664 137210160 139233424 141255984 143282848 145314640 
2898.241 147348112 149377776 151399008 153410832 155417264 157426096 
2901.134 159447888 161491408 163562976 165665984 167801824 169972992 
2904.027 172185280 174446752 176768480 179161296 181633664 184190976 
2906.920 186836384 189571248 192396928 195314928 198326016 201429232 
2909.813 204621920 207899824 211259312 214699088 218220176 221824544 
2912.706 225511824 229275440 233100560 236964672 240837264 244687024 
2915.599 248480464 252182400 255756192 259157456 262332224 265222496 
2918.492 267762864 269889984 271548864 272690240 273276320 273279200 
2921.385 272680640 271474848 269670688 267293216 264379120 260976368 
2924.278 257136640 252909280 248343344 243486416 238385280 233092240 
2927.171 227660048 222140016 216581616 211024128 205498976 200029872 
2930.064 194632880 189319808 184098576 178973280 173945728 169016720 
2932.958 164188128 159465680 154859456 150383248 146052368 141878992 
2935.851 137870096 134027528 130348352 126829760 123471696 120278328 
2938.744 117259416 114427064 111792840 109366432 107154920 105162632 
2941.637 103393752 101852848 100545208 99476608 98649672 98063864 97712968 
2945.012 97586928 97672104 97953536 98416864 99047112 99829888 100748648 
2948.387 101782480 102907872 104095264 105310704 106519296 107682608 
2951.280 108761952 109722000 110528424 111153392 111576832 111786376 
2954.173 111778232 111555240 111125656 110499496 109688904 108706192 
2957.066 107563656 106273424 104846960 103293168 101619696 99831808 97933944 
2960.442 95930760 93828072 91632232 89350432 86989064 84554456 82052928 
2963.817 79493472 76888480 74254960 71611632 68978944 66374080 63809276 
2967.192 61292376 58827728 56418716 54070164 51789152 49584756 47465668 
2970.567 45437828 43503644 41661692 39908436 38239840 36652972 35147464 
2973.943 33724356 32384106 31126388 29946846 28838654 27792274 26797354 
2977.318 25845044 24929098 24046636 23198114 22387216 21618398 20896516 
2980.693 20225262 19605928 19036490 18512230 18026524 17570788 17137072 
2984.068 16718630 16311359 15913267 15524674 15147065 14781303 14427802 
2987.444 14085164 13751825 13426056 13107053 12795928 12494505 12204947 
2990.819 11928285 11663439 11407529 11156225 10905711 10654424 10404438 
2994.194 10161140 9931574 9722492 9537524 9375690 9231043 9094428 8956166 
2998.052 8807634 8645025 8468421 8281993 8091898 7904654 7725754 7558154 
3001.909 7403461 7261759 7132432 7014390 6906009 6804285 6705714 6605550 
3005.766 6499423 6383638 6256825 6120437 5978717 5837480 5703641 5583638 
3009.624 5481249 5397203 5329004 5271247 5217186 5160483 5097216 5026651 
3013.481 4951540 4876844 4807822 4747789 4697378 4653736 4612109 4566735 
3017.339 4514302 4453406 4385723 4314772 4244067 4175781 4110383 4046634 
3021.196 3982660 3917692 3852467 3789357 3731737 3682746 3644319 3617122 
3025.053 3599949 3590627 3586084 3582843 3577130 3564770 3542187 3507213 
3028.911 3459550 3402141 3340499 3282070 3233865 3200384 3182460 3176485 
3032.768 3175717 3172380 3160498 3136134 3099491 3053307 3002825 2953215 
3036.626 2909349 2874659 2850745 2837404 2832635 2833502 2835370 2834169 
3040.483 2826799 2811558 2789481 2762637 2733694 2705054 2677115 2648344 
3044.341 2616742 2580409 2539213 2495655 2454034 2419481 2395958 2385230 
3048.198 2386163 2395525 2408353 2420081 2427744 2429077 2423213 2409785 
3052.055 2388362 2358745 2321601 2278664 2232534 2187209 2146250 2112154 
3055.913 2085718 2065543 2049330 2034782 2021167 2008983 2000562 1998564 
3059.770 2004922 2019569 2040408 2063013 2082189 2093609 2094308 2083887 
3063.628 2064178 2038910 2011580 1985416 1961618 1939717 1918284 1895887 
3067.485 1872193 1848034 1826040 1808671 1797824 1793532 1793599 1794497 
3071.343 1792468 1784549 1770276 1750382 1727661 1704275 1680991 1657442 
3075.200 1631898 1603163 1572036 1541277 1516140 1502441 1504103 1521825 
3079.057 1551951 1587433 1619193 1638783 1640346 1622020 1585804 1536356 
3082.915 1480564 1425277 1377077 1341513 1322136 1320508 1335597 1363716 
3086.772 1398551 1432258 1457956 1469592 1464738 1444193 1411614 1372258 
3090.630 1331276 1293323 1261420 1236697 1219585 1209252 1203869 1201078 
3094.487 1198021 1192007 1181475 1167189 1152073 1140578 1137488 1145594 
3098.344 1164033 1188187 1210149 1222177 1218489 1197888 1164963 1128386 
3102.202 1097791 1081681 1083973 1103604 1135329 1171342 1204533 1229354 
3106.059 1242945 1245503 1239123 1226995 1212408 1198686 1188353 1182871 
3109.917 1182439 1186326 1192041 1197290 1199982 1198952 1194134 1186226 
3113.774 1175860 1162272 1143933 1119184 1087261 1050591 1014190 984998 
3117.632 969655 971515 988983 1015020 1039730 1053580 1050990 1032822 
3121.489 1005821 980382 966700 970087 990245 1020865 1052285 1075669 1085767 
3125.829 1082478 1069590 1053414 1039996 1032589 1032357 1037339 1045377 
3129.686 1054311 1063611 1073211 1083740 1095366 1107690 1119749 1130645 
3133.543 1139747 1147123 1153103 1157953 1161774 1164531 1165594 1164498 
3137.401 1160910 1154066 1143800 1129349 1110447 1086896 1059858 1031626 
3141.258 1005123 984433 973043 973375 985861 1009142 1040394 1075270 1109551 
3145.598 1139648 1162704 1177422 1184332 1185396 1183103 1180379 1178751 
3149.455 1178319 1177555 1173169 1162571 1144232 1118387 1088225 1058164 
3153.313 1032224 1013094 1000706 992736 985994 977825 967630 957734 952056 
3157.652 954148 966268 987057 1011765 1034084 1047834 1049130 1037671 
3161.510 1017046 992968 971648 957435 952155 954280 960490 966634 969855 
3165.849 968892 964707 959693 956439 957734 964641 977260 994994 1016647 
3170.189 1040627 1065339 1088989 1108753 1121509 1124466 1115364 1093905 
3174.046 1062250 1024751 986625 952985 926686 908391 896371 887739 880766 
3178.386 875222 872964 877812 892885 919282 955210 996156 1036176 1069956 
3182.726 1093905 1107557 1112706 1112706 1110149 1107092 1104103 1101146 
3186.583 1098256 1095599 1093274 1090749 1086331 1076964 1059227 1031028 
3190.440 992669 947307 901086 861377 834055 822568 826486 842553 865162 
3194.780 889200 910317 926554 937312 942957 944020 941131 934290 923997 
3199.120 910981 896239 880966 865992 851617 837408 822502 806236 788045 
3203.459 768129 746820 724881 703076 682102 662722 645533 631131 619982 
3207.799 611753 605847 601069 595860 588461 577678 562914 543075 518857 
3212.138 491490 463295 438717 423195 422598 441569 481704 540122 609265 
3216.478 678385 735900 771515 779647 760528 719770 667069 613346 567990 
3220.818 536439 520217 516833 522009 530103 537368 542378 545032 548150 
3225.157 554487 566729 585674 609032 631596 646661 646661 626386 584811 
3229.497 526255 459314 395336 345626 317606 313395 329477 357995 389798 
3233.836 417026 435035 443394 444654 442564 440607 440243 441238 442133 
3238.176 441503 438717 434173 429463 425848 424555 425881 428535 430989 
3242.516 431122 427407 419049 406380 391953 378854 371392 373614 387907 
3246.855 412947 444753 476165 498190 503432 487575 451055 399548 342077 
3251.195 288792 247813 223878 217247 225137 242608 264357 286571 306531 
3255.534 322447 333290 338330 337501 331964 323972 316744 313627 316379 
3259.874 324105 333821 340950 341116 332196 314854 292572 270424 252455 
3264.214 240652 234055 229182 221789 208628 188175 161856 132390 103821 
3268.553 79893 63655 56928 60341 74292 97590 128479 164475 202164 238829 
3273.375 271684 299170 320590 336241 345990 349539 346985 338397 325067 
3277.715 309681 295656 286107 283222 286604 294429 303017 309515 312433 
3282.054 312002 310145 309250 309946 311803 312334 308255 297778 280835 
3286.394 260345 240686 227425 224938 235547 259052 293235 333290 373813 
3290.733 409132 433874 444289 439181 419480 389798 356071 325431 303116 
3295.073 292440 293335 303116 317805 333390 347449 358857 367645 373979 
3299.413 376997 375372 367645 352888 332726 309648 288096 271949 263429 
3303.752 262235 266877 274337 281929 288328 293633 298607 303647 308653 
3308.092 312135 312268 307725 298574 286903 276260 269595 269761 277519 
3312.431 291677 309416 328217 345592 360316 372287 381805 389101 393114 
3316.771 392517 385022 369767 346919 318899 289887 265352 249769 245493 
3321.111 251858 265319 278779 285311 279144 257229 220330 173193 122812 
3325.450 77076 42247 22730 19980 33201 59115 94011 133484 173458 210684 
3330.272 242940 269231 290318 308289 325498 343934 364760 386481 406678 
3334.612 421271 426511 420641 403959 379019 350401 322944 299668 282360 
3338.951 269960 259848 248808 234420 215855 194706 174386 159768 155525 
3343.291 165072 188838 224872 268302 312699 351893 380777 396663 399515 
3347.630 391622 376599 358525 341348 328250 321121 319828 322646 325597 
3351.970 323110 309383 279907 233591 174021 109289 51327 11464 -1093 16269 
3356.792 60407 121386 186816 245227 287698 310809 315451 306432 288892 
3361.131 268767 250366 235779 226099 220894 218209 215292 209457 198054 
3365.471 180386 158177 135075 116548 107268 109820 123342 143991 165801 
3369.811 183137 192186 192153 184496 171933 156652 139715 120392 97557 70746 
3374.632 41253 12259 -11894 -26904 -29355 -18852 3247 33897 68327 101633 
3379.454 129739 148963 157017 154597 144422 131794 123143 124668 139583 
3383.794 167326 201998 234486 255273 257129 238000 202197 159238 120359 
3388.133 96596 94806 115586 154100 201170 245360 276359 287101 274933 243238 
3392.955 198916 151548 110648 82776 70548 72370 82776 94740 101335 98419 
3397.777 85394 65113 42811 23989 12127 8681 12889 22498 35488 51195 70481 
3403.081 94607 124336 158144 192054 220430 237205 237205 218971 184595 
3407.420 139583 91260 47583 14380 -4804 -9542 -1491 16401 40557 67399 93249 
3412.724 114360 126325 125529 109720 78766 36316 -10702 -53905 -83721 -92931 
3417.546 -78851 -43469 7190 63853 116945 159138 186253 197954 196529 185888 
3422.368 169049 148432 125099 100706 77076 57126 44401 41717 50366 69421 
3427.190 95204 123044 147769 165038 172961 171071 160729 144123 123375 
3431.529 100374 75983 50598 24619 -2021 -28925 -55794 -81369 -104757 -123969 
3436.351 -137186 -142651 -139438 -127282 -107407 -82098 -54303 -27500 -4075 
3440.691 13783 25712 31544 32770 30981 28065 25845 26077 29457 36250 45495 
3445.995 54807 60606 58982 46091 20543 -17958 -65799 -118438 -169480 -211939 
3450.816 -240453 -250851 -242009 -215715 -176767 -131687 -86802 -48704 
3454.674 -20973 -5268 -894 -4340 -11894 -18985 -22199 -19151 -9873 4804 
3459.496 21603 36714 46787 49107 42612 28761 11066 -5732 -17129 -19515 
3464.317 -12425 2120 19118 32803 36813 27634 4108 -31211 -73087 -115489 
3469.139 -152389 -179880 -196440 -202368 -199752 -190280 -175839 -157457 
3472.997 -135828 -111978 -87961 -66826 -51984 -46583 -51752 -66362 -86404 
3477.336 -105750 -119001 -121319 -111183 -90214 -63314 -36644 -15904 -4903 
3481.676 -3578 -8382 -14015 -15738 -10669 331 13585 23194 23095 9045 -20045 
3486.980 -61227 -108434 -153151 -187266 -204488 -202070 -180708 -144374 
3490.837 -99191 -51719 -8813 24519 44965 51493 44832 27502 2915 -24584 
3495.659 -51089 -72789 -87233 -93593 -92202 -84947 -75207 -66196 -60763 
3499.999 -59935 -62585 -65269 -62320 -49035 -22530 15871 60109 100374 126689 
3504.820 132589 115885 80191 31942 -20708 -70669 -114463 -152124 -186272 
3509.160 -220947 -258832 -299229 -337769 -368393 -385310 -384714 -366440 
3513.017 -333333 -290554 -244129 -199056 -159477 -127646 -105022 -91771 
3516.875 -88359 -93328 -104624 -118868 -130760 -135463 -129468 -111084 
3520.732 -81568 -44993 -7620 24254 44468 49538 39033 15871 -15373 -49135 
3525.554 -80408 -105916 -123771 -134172 -137881 -136590 -131687 -124135 
3529.411 -114098 -101676 -87266 -72424 -59073 -50427 -49234 -57351 -74644 
3533.751 -99655 -129203 -159676 -187332 -209257 -223663 -230121 -227670 
3537.608 -216443 -196341 -167659 -132350 -94222 -58278 -30946 -18024 -22431 
3541.948 -43966 -78421 -118504 -155172 -181006 -191571 -187796 -175972 
3545.805 -165837 -165903 -181470 -211840 -251282 -291647 -324890 -346377 
3549.663 -354654 -351906 -342338 -331147 -322473 -318036 -317308 -318135 
3553.520 -318433 -317241 -314858 -312176 -309394 -305256 -297176 -281713 
3557.378 -256448 -221047 -177893 -133178 -94322 -68582 -60167 -69874 -94222 
3561.717 -126421 -159577 -187100 -204455 -208959 -200116 -178787 -147123 
3565.575 -108136 -65997 -25114 10967 40458 62926 79131 88410 88974 77938 
3570.396 52785 11663 -43701 -109427 -178688 -242804 -294991 -330088 -347139 
3574.736 -348231 -338034 -322009 -304660 -289296 -277342 -268865 -262772 
3578.594 -257010 -249063 -235750 -214556 -183954 -144837 -99755 -53375 
3582.451 -11033 24122 49836 67201 79031 88410 97458 104815 105677 93282 
3587.273 61699 10072 -55661 -125824 -191406 -246381 -287872 -315785 -330551 
3591.612 -333035 -324029 -304196 -275124 -239592 -201342 -165274 -135993 
3595.470 -116483 -108069 -110222 -121088 -138378 -159411 -181271 -200812 
3599.327 -215052 -220815 -216311 -201441 -177297 -146394 -111713 -75472 
3603.185 -39195 -3876 29424 59313 83373 98651 101600 89802 62892 23326 
3608.006 -23392 -70867 -113204 -146858 -170772 -185246 -190015 -184153 
3611.864 -166532 -136490 -96806 -53475 -14744 11365 19748 9973 -14379 -47279 
3616.686 -79978 -102902 -107738 -88525 -45755 13783 78998 138621 186087 
3621.025 219933 242774 258025 269297 278050 284383 286637 282891 271253 
3625.365 250897 221590 184363 140444 91658 41518 -4605 -40951 -63115 -71033 
3630.187 -68449 -58543 -43270 -23126 2385 32273 64218 93646 115189 123375 
3635.008 115918 93812 61666 26673 -2650 -18289 -14446 10106 51062 100407 
3639.830 146974 179822 191059 177137 139881 86919 28926 -23955 -63712 -86139 
3644.652 -91009 -80806 -59537 -31774 -1491 28396 56994 84102 108394 126590 
3649.474 133451 125728 103987 74458 44335 19814 3578 -5334 -9840 -13783 
3654.295 -21271 -34888 -54932 -77559 -96806 -107672 -108401 -101676 -92235 
3658.635 -84649 -81833 -84218 -90015 -96276 -100152 -99688 -95316 -88723 
3662.975 -83390 -82164 -87133 -98628 -114959 -133079 -148514 -156828 -153880 
3667.314 -137583 -108401 -72424 -40388 -26804 -42508 -86968 -145699 -198957 
3671.654 -232439 -237870 -213860 -162955 -90347 -5433 76844 137793 164409 
3675.993 158442 134279 104550 74955 44335 9145 -33596 -83025 -135099 -183225 
3680.815 -221312 -245056 -253037 -246381 -228200 -201871 -170441 -135993 
3684.673 -99125 -58543 -11961 43971 111908 192617 283653 377361 461305 
3689.012 523402 554686 551634 516833 455434 373614 278945 179689 84036 397 
3693.834 -63579 -102637 -114363 -101245 -70602 -34391 -5964 4307 -8349 
3698.174 -41713 -88326 -136557 -174746 -193492 -187928 -160736 -121849 
3702.031 -85609 -63844 -63049 -82628 -116516 -156795 -195248 -225782 -244195 
3706.371 -249560 -242572 -225517 -199752 -165572 -120458 -61127 14380 102661 
3710.710 191755 262003 293302 274171 206805 106340 -6792 -113171 -199056 
3715.050 -256050 -280720 -273534 -237473 -178489 -104293 -24949 49140 109256 
3719.389 148830 165105 158641 133086 93779 47317 -298 -44562 -82197 -111183 
3724.211 -129932 -136126 -129203 -110355 -85113 -61459 -48439 -52249 -74015 
3728.551 -110322 -154145 -197765 -232340 -249924 -245188 -216344 -165903 
3732.408 -100417 -29190 39166 97193 137892 156056 148963 120127 78601 35686 
3737.230 -563 -27434 -46120 -59637 -71331 -82429 -91837 -96740 -93295 -78421 
3742.052 -51818 -17660 14612 28463 6494 -55495 -142552 -229491 -295786 
3746.391 -331843 -336445 -310520 -256514 -178125 -83721 13021 95171 145781 
3750.731 156553 130501 80423 22863 -28792 -65964 -86338 -90380 -79911 -57086 
3755.553 -24021 16136 58618 96298 121022 124800 102495 53680 -16102 -95614 
3760.375 -172627 -235353 -276647 -294494 -289892 -265918 -227273 -179814 
3764.232 -131124 -89386 -61492 -49068 -48041 -50526 -48936 -38168 -18985 
3768.572 3180 17959 15009 -10403 -54502 -107208 -156066 -192134 -211939 
3772.911 -216907 -211111 -199520 -185908 -171865 -156695 -138676 -116119 
3776.769 -89253 -59339 -29455 -2915 17130 28032 28363 17230 -5897 -41216 
3781.590 -87067 -140697 -195347 -242804 -273534 -280157 -261415 -223530 
3785.448 -179450 -142916 -125228 -131058 -158252 -198460 -240420 -272872 
3789.305 -286614 -277044 -244659 -195082 -136590 -78520 -29521 5864 26044 
3793.645 33035 30716 23459 15142 7422 -99 -8946 -20443 -34159 -47312 -55396 
3798.949 -52746 -34424 3313 58684 122314 176706 204219 197457 161227 107168 
3803.771 46787 -10337 -58046 -91473 -108401 -110454 -104558 -100119 -104724 
3808.110 -120028 -141525 -161664 -172461 -168387 -147620 -112376 -68018 
3811.968 -22364 17693 47351 64384 68526 59943 38967 6096 -37207 -87531 
3816.789 -140498 -191770 -239161 -280786 -314659 -336941 -341676 -321016 
3820.647 -271349 -197632 -115754 -43072 9145 37940 46456 40292 26110 10238 
3825.469 -1093 -3578 3180 16799 32074 44203 49770 47019 35189 14148 -16401 
3830.772 -56059 -102537 -151661 -196904 -230849 -247672 -243566 -217636 
3834.630 -171799 -110719 -40786 29192 89935 132125 148465 136865 101004 
3838.969 51758 3015 -32933 -47842 -40289 -14744 19914 53680 77308 85162 
3843.791 77673 60109 39331 21935 11298 6958 7024 8780 10238 11597 14678 
3849.095 21603 35057 56530 85560 120392 157282 190264 211744 214330 196363 
3853.917 164707 129076 96066 68228 44435 22432 298 -23027 -47478 -71497 
3858.739 -92102 -105254 -107109 -94885 -68648 -31277 11033 49306 75552 84135 
3863.561 73398 46091 8681 -30813 -65997 -92864 -110587 -119564 -121684 
3867.900 -118371 -112343 -107738 -109394 -121187 -143115 -170971 -198659 
3871.758 -221279 -235585 -240784 -238102 -230054 -220384 -212668 -207435 
3875.615 -202898 -196175 -183192 -160405 -125261 -76267 -13882 58419 132755 
3879.955 198916 246123 267772 263860 239426 201733 157282 110880 66538 27634 
3884.776 -2485 -21370 -28991 -28461 -24684 -22530 -24750 -32403 -44198 
3889.116 -56986 -66726 -68217 -58444 -37704 -11663 12027 26839 30153 25149 
3893.938 16865 11530 13419 23592 39696 56662 68095 67366 51095 19880 -21006 
3899.242 -63347 -98098 -119994 -127348 -123108 -111249 -95448 -78520 -61757 
3903.581 -46318 -34325 -28063 -29422 -38930 -55131 -75075 -94719 -109957 
3907.921 -117344 -114827 -101577 -78520 -48339 -15108 16633 42347 58386 
3912.260 62760 55834 40292 19947 -762 -17328 -27069 -29090 -24849 -17494 
3917.082 -11397 -8681 -10039 -13617 -16401 -15307 -9575 298 11563 21140 
3921.904 26209 24818 16832 2982 -14711 -33961 -52746 -69642 -84284 -96177 
3926.726 -104657 -109328 -108765 -102173 -89518 -71132 -48869 -25379 -3379 
3931.065 13949 24553 26441 19914 5765 -12955 -33033 -50890 -63579 -69774 
3935.887 -69940 -66528 -62585 -62022 -67157 -77758 -91274 -104094 -112243 
3940.227 -112939 -106413 -94984 -83456 -76201 -76731 -84317 -96740 -108765 
3944.566 -116318 -116616 -109129 -94786 -76566 -58378 -44463 -39228 -45821 
3948.906 -65269 -95912 -133509 -171368 -201706 -217867 -214754 -191240 
3952.763 -149706 -96177 -39096 13320 54044 78435 86223 79330 62230 39961 
3957.585 17230 -2120 -16301 -24021 -25313 -20642 -11530 530 13187 23558 
3962.407 28926 26806 15871 -3777 -30747 -62287 -94521 -123473 -145599 
3966.747 -157821 -158948 -149276 -131124 -107473 -82297 -59570 -42078 -31078 
3971.086 -26904 -28163 -32470 -37804 -42442 -45722 -48107 -50228 -52646 
3975.426 -55794 -58543 -59537 -57351 -50725 -39759 -25512 -9409 7521 24453 
3980.248 41949 60639 80887 101965 121552 136765 144389 142102 129772 109422 
3985.069 84732 59844 39365 26408 22697 29158 45528 70713 102230 136898 
3989.891 170110 196927 213369 216684 207302 187645 162354 136268 113797 
3994.231 97690 88344 84433 84400 85858 86853 86753 85096 81881 77871 73663 
3999.535 70746 70117 72669 
##END=
