##TITLE=ac_0 31 12:59:50 2026 (GMT+02:00)
##JCAMP-DX=5.01  $$ Nicolet v. 970
##DATATYPE=INFRARED SPECTRUM
##ORIGIN=Vojna akademija
##OWNER=Nicolet
##LONGDATE=2026/08/31
##TIME=13:00:15
##SPECTROMETER/DATA SYSTEM=Nicolet iS20
##DATA PROCESSING=
Ratio against background
%Transmittance->Absorbance
Truncated
ElementMultiply or ElementDivide
##COMMENTS=
Number of sample scans: 8
Collection length: 11,90 sec
Sample gain: 8,0
Background collected on: Mon Aug 31 12:50:07 2026 (GMT+02:00);
Number of background scans: 8
Background gain: 8,0
Sample spacing:  1,000
Number of scan points: 12415
Resolution points: 8286
Number of FFT points: 65536
Apodization: N-B strong;
Phase correction: Mertz;
Laser frequency: 15798,00 cm-1
Number of rejected sample scans: 0
Number of rejected background scans: 0
Bench serial number: BER2010005;
##RESOLUTION= 4,000
##XUNITS=1/CM
##YUNITS=ABSORBANCE
##FIRSTX=400.156891
##LASTX=4000.123047
##FIRSTY=-0.007896
##MAXX=4000.123047
##MINX=400.156891
##MAXY=0.289735
##MINY=-0.010545
##XFACTOR=1.000000
##YFACTOR=1.000000E-009
##NPOINTS=7468
##DELTAX=0.482117
##ZPD=6100
##XYDATA=(X++(Y..Y))
400.157 -7895600 -9948613 -10544905 -9529528 -7066414 -3599239 327918 
403.532 4156077 7454996 9967679 11585639 12366100 12479399 12136932 11502785 
407.389 10656903 9601407 8314652 6808256 5165211 3528825 2062114 866457 
411.246 -48936 -762506 -1386993 -2001547 -2603309 -3098944 -3333545 -3162401 
415.103 -2517239 -1429235 -44662 1405365 2583642 3127824 2783545 1641876 
418.959 226364 -748581 -838839 -73518 1263547 2866688 4532214 6134685 
422.816 7607483 8902389 9952083 10682542 11025189 10942271 10444383 9587518 
426.673 8470955 7219544 5990878 4955729 4259893 4007372 4221315 4829399 
430.530 5660235 6487248 7082382 7272945 7011427 6372609 5518732 4618807 
434.387 3805100 3121783 2532548 1955593 1334301 694647 154266 -132615 -35783 
438.726 489665 1376845 2454334 3484333 4248082 4591515 4483836 4014763 
442.583 3366677 2730527 2238929 1952098 1864705 1950800 2195101 2594842 
446.440 3141507 3796009 4481526 5096881 5558567 5832577 5939918 5940523 
450.297 5897496 5851988 5802153 5706126 5506517 5169100 4701363 4155107 
454.154 3592164 3062817 2581376 2128003 1664559 1165428 646694 181082 
458.011 -125824 -187465 19516 449364 1011101 1598507 2118014 2482959 2637110 
462.350 2569377 2327364 2009483 1744028 1655878 1822945 2263476 2926394 
466.207 3712454 4500408 5196797 5773611 6269800 6755956 7279684 7829246 
470.064 8318604 8609401 8554720 8069957 7174841 6007306 4757169 3598779 
473.921 2620809 1827537 1195197 727271 479183 549942 1019902 1891594 3044098 
478.260 4267154 5317332 6015033 6310276 6277162 6074401 5861660 5742217 
482.117 5714485 5688870 5538330 5181439 4623428 3967679 3358062 2924760 
485.974 2722191 2728126 2877061 3111204 3411759 3790159 4258120 4790501 
489.831 5298246 5651171 5719017 5435651 4844443 4112925 3480458 3156760 
493.688 3263442 3781703 4582708 5474169 6273935 6844945 7112762 7072953 
497.544 6771268 6284557 5691253 5068486 4484305 3990384 3624840 3399402 
501.401 3300933 3301735 3385076 3562832 3875768 4363835 5028461 5800574 
505.258 6542645 7057427 7156247 6737143 5836573 4648010 3463190 2596542 
509.115 2260611 2525149 3307344 4421304 5617202 6647134 7334676 7579328 
512.972 7376464 6794491 5956982 5010495 4106871 3390186 2954516 2824197 
516.829 2935334 3162433 3352820 3386946 3222648 2896106 2497855 2121544 
520.686 1835423 1654348 1552550 1484387 1410684 1310438 1182937 1038402 
524.543 892619 765440 685885 704271 885249 1282854 1914390 2732027 3623437 
528.882 4427664 4992127 5206891 5053602 4619275 4082120 3650033 3478120 
532.739 3632491 4067303 4660301 5255014 5730936 6032469 6174510 6215783 
536.596 6222505 6231816 6240824 6217866 6127762 5958730 5733588 5504101 
540.453 5334203 5282986 5382710 5636267 6014999 6469591 6936107 7346033 
544.310 7640799 7775136 7730644 7518776 7178984 6761340 6304930 5826532 
548.167 5317029 4758442 4152732 3540383 3012200 2687483 2667213 3003558 
552.024 3667008 4555117 5505947 6353579 6964792 7265128 7255055 6991830 
555.881 6564745 6059516 5553197 5107642 4771272 4588802 4591649 4787654 
559.738 5148345 5606427 6063112 6403948 6539247 6421299 6061936 5523363 
563.594 4903483 4304867 3806872 3459483 3271287 3218409 3251190 3312185 
567.451 3347143 3315791 3204056 3026013 2822563 2644977 2546779 2562744 
571.308 2697985 2929230 3210632 3488307 3711853 3850093 3892851 3851197 
575.165 3749684 3621699 3502904 3421877 3400838 3449497 3564502 3728796 
579.022 3913279 4080748 4189197 4206259 4114431 3917859 3638572 3311016 
582.879 2974566 2666146 2424146 2284126 2273734 2409052 2686416 3079535 
586.736 3540383 4013091 4441489 4781490 5013277 5138655 5176142 5151162 
590.593 5090276 5015825 4948591 4911794 4927712 5013914 5171313 5377074 
594.450 5582530 5719521 5724221 5551620 5198709 4706153 4153970 3633193 
598.307 3221614 2971397 2896006 2974666 3163001 3411024 3670048 3900073 
602.164 4072521 4164206 4161363 4062754 3884828 3661394 3436171 3254328 
606.021 3145946 3119781 3163101 3249654 3348813 3436438 3499564 3531898 
609.878 3528157 3479657 3372921 3198815 2959787 2678148 2391427 2145684 
613.735 1979891 1911428 1930099 2000162 2075531 2112088 2084986 1996467 
617.592 1871294 1743728 1645468 1595548 1594982 1631466 1685016 1737374 
621.448 1776864 1802715 1824875 1866070 1954861 2119246 2381632 2745831 
625.305 3191105 3670550 4122559 4479618 4688602 4725514 4597308 4340775 
629.162 4007473 3656849 3337627 3080336 2896140 2777943 2706954 2658212 
633.019 2610809 2549012 2469296 2381766 2310441 2287124 2339722 2482226 
636.876 2702386 2960788 3193207 3334121 3333353 3175784 2889836 2543846 
640.733 2227172 2018071 1970438 2093875 2359578 2710788 3085608 3431061 
644.590 3710282 3904954 4009780 4025732 3955876 3807941 3597042 3347177 
648.447 3093751 2874059 2718457 2645644 2657645 2744164 2890102 3082739 
652.304 3312719 3573422 3855877 4142930 4409723 4628451 4773919 4834960 
656.161 4819448 4756265 4688033 4661607 4718178 4880563 5149653 5501584 
660.018 5894271 6268926 6563870 6727587 6723750 6546345 6223345 5817197 
663.875 5405422 5068989 4875704 4869573 5073649 5484471 6066001 6714362 
667.732 7257851 7526564 7465615 7174807 6807449 6471542 6200657 5984529 
671.589 5794194 5604145 5404046 5206925 5043445 4954187 4967828 5086757 
675.446 5278893 5484035 5627406 5639792 5486182 5171615 4742965 4268761 
679.302 3825022 3471640 3236602 3115843 3082071 3102794 3154590 3233965 
683.159 3354088 3534203 3784778 4098241 4448151 4800150 5119478 5384891 
687.016 5591055 5744903 5856824 5930984 5960308 5929102 5820924 5630628 
690.873 5372612 5084309 4818912 4629021 4556355 4617434 4801557 5073816 
694.730 5387474 5695886 5961014 6163318 6301837 6388951 6443528 6484457 
698.587 6526197 6575207 6633676 6701508 6780254 6877260 7004255 7175380 
702.444 7403595 7693847 8039207 8420548 8811963 9185217 9520250 9810464 
706.301 10065501 10308133 10566960 10869765 11232859 11659048 12138397 
709.676 12654913 13193391 13747072 14321185 14932749 15604247 16354466 
713.051 17192740 18114570 19102618 20131546 21178466 22229032 23280820 
716.425 24341290 25421924 26529978 27662582 28802824 29919512 30974562 
719.800 31923008 32723486 33343900 33764712 33982800 34010280 33868796 
723.175 33579388 33157286 32607604 31926826 31112860 30172184 29126342 
726.550 28014020 26882968 25781538 24756378 23842934 23068146 22448726 
729.925 21988816 21677118 21485944 21375456 21295236 21197914 21047920 
733.300 20825700 20530606 20176006 19779664 19354962 18908248 18440626 
736.674 17954170 17458154 16971934 16519679 16125558 15805632 15562999 
740.049 15390666 15275747 15204126 15162402 15139517 15121059 15087266 
743.424 15016638 14888753 14694819 14445339 14171560 13916872 13724330 
746.799 13623185 13617475 13685996 13786677 13874040 13907498 13862922 
750.174 13736060 13537992 13288936 13011992 12731539 12469647 12244003 
753.548 12068553 11948344 11878939 11846420 11833549 11822416 11802259 
756.923 11771413 11734580 11697714 11660205 11612387 11537421 11418177 
760.298 11246086 11027670 10784601 10549171 10351736 10214768 10147980 
763.673 10149303 10211953 10331071 10506907 10742518 11036948 11376678 
767.048 11730120 12054075 12299389 12426002 12417376 12282891 12054926 
770.423 11776214 11491999 11235137 11021417 10851589 10714601 10595174 
773.797 10478903 10356419 10223317 10079710 9927810 9771864 9615228 9460104 
777.654 9306187 9150937 8990127 8820044 8640530 8457103 8282162 8130924 
781.511 8018213 7952909 7931885 7939748 7951559 7941941 7890651 7791800 
785.368 7654727 7502527 7361771 7256099 7197242 7181814 7192358 7204418 
789.225 7196063 7153181 7076556 6981223 6893283 6841040 6846426 6917624 
793.082 7046180 7205462 7356311 7460895 7488705 7429312 7294611 7116905 
796.939 6938194 6797991 6724087 6723986 6785807 6883487 6989607 7082113 
800.796 7149409 7190370 7208696 7207719 7185957 7138192 7058842 6947385 
804.653 6812665 6670451 6540963 6443326 6387875 6376409 6403242 6460511 
808.510 6542308 6646461 6772783 6918667 7076253 7230965 7363928 7459547 
812.367 7510887 7523901 7516079 7511899 7533070 7589376 7674118 7764409 
816.224 7829044 7835184 7761845 7606539 7388159 7140786 6907355 6728057 
820.081 6628192 6613389 6666245 6754374 6835351 6873422 6849725 6766691 
823.938 6646528 6523607 6431959 6390935 6399207 6433742 6460511 6444268 
827.794 6363128 6216623 6026624 5829185 5663457 5563265 5546250 5614181 
831.651 5756319 5955135 6190239 6441174 6689966 6917960 7106935 7240837 
835.508 7306304 7297374 7216411 7074670 6889614 6682294 6475510 6289802 
839.365 6146178 6063750 6055922 6129006 6277397 6483044 6715337 6939945 
843.222 7125729 7250910 7309741 7310920 7272103 7211527 7142638 7070595 
847.079 6995298 6916209 6838549 6773893 6738456 6744412 6794693 6877125 
850.936 6968260 7039108 7066453 7042239 6978530 6903248 6849960 6847907 
854.793 6909342 7025334 7167160 7296666 7377678 7385800 7316884 7186564 
858.650 7026681 6872682 6758143 6703796 6713184 6774163 6863525 6954893 
862.507 7024493 7058943 7057360 7030419 6994692 6968698 6965735 6990752 
866.364 7039714 7102456 7166015 7218062 7249394 7254819 7230123 7172415 
870.221 7079587 6952032 6795736 6625097 6461722 6330716 6255749 6250740 
874.078 6314713 6429841 6567167 6694307 6783485 6821315 6809973 6765076 
877.935 6706723 6655478 6624962 6620252 6641616 6686803 6755215 6847435 
881.792 6961997 7092520 7225844 7345157 7435177 7490560 7519821 7545714 
885.648 7598750 7703797 7871182 8089941 8329750 8548603 8709926 8791675 
889.505 8793298 8732644 8636913 8530796 8424737 8315462 8190819 8040962 
893.362 7867910 7689463 7534857 7435413 7411010 7461637 7566685 7694252 
897.219 7808701 7884544 7914338 7906375 7879415 7852660 7839502 7843112 
901.076 7859475 7880259 7898952 7911639 7916801 7912550 7895240 7859543 
904.933 7802628 7727407 7645318 7572956 7529396 7526058 7563043 7626266 
908.790 7694455 7743934 7760091 7741641 7699514 7650174 7605561 7567527 
912.647 7525721 7463861 7368578 7241072 7101041 6985466 6933952 6978765 
916.504 7129704 7370499 7661438 7953381 8206249 8395888 8522145 8602270 
920.361 8660945 8716315 8772470 8817778 8833366 8802089 8719324 8597201 
924.218 8463995 8353630 8294252 8301277 8372511 8492377 8637555 8787110 
928.075 8926367 9048246 9150463 9230772 9283100 9297758 9265160 9182104 
931.932 9057177 8912602 8779300 8688359 8662872 8708472 8811320 8941080 
935.789 9063099 9146200 9175133 9154998 9108876 9069222 9065331 9115102 
939.646 9216895 9351652 9488686 9600966 9673092 9710057 9735232 9784640 
943.502 9893640 10081846 10346069 10657888 10971766 11234185 11404434 
946.877 11463285 11420149 11308724 11178323 11078924 11044901 11090243 
950.252 11205080 11363175 11528779 11669463 11764435 11806209 11800114 
953.627 11760792 11705951 11650675 11605139 11572334 11547902 11522450 
957.002 11484310 11423755 11336340 11226195 11106253 10997253 10921544 
960.377 10897591 10935306 11032326 11175093 11342224 11513501 11673037 
963.751 11814822 11941056 12058469 12171960 12280745 12376396 12447108 
967.126 12482127 12477899 12440424 12384646 12329283 12289505 12272598 
970.501 12276109 12289776 12301195 12302320 12292231 12276689 12263634 
973.876 12257159 12253000 12238380 12195338 12108380 11972084 11794939 
977.251 11597788 11407529 11249520 11136813 11067843 11026583 10990525 
980.625 10937174 10851556 10729985 10579047 10411903 10242213 10082796 
984.000 9942219 9826393 9739942 9685898 9665163 9674480 9706769 9749871 
987.857 9790197 9816801 9823444 9811820 9788672 9764070 9745025 9733402 
991.714 9724389 9708905 9677665 9626068 9556863 9481032 9415000 9374606 
995.571 9372677 9414018 9494578 9602117 9720424 9831985 9920183 9972731 
999.428 9980833 9939540 9847677 9707312 9524077 9306288 9065636 8814634 
1003.285 8566650 8335120 8130957 7962527 7834542 7747509 7698738 7682752 
1007.142 7693713 7725821 7775507 7842437 7928916 8038228 8171235 8322724 
1010.999 8479672 8620385 8718614 8752286 8708675 8592570 8424771 8239814 
1014.856 8074649 7956858 7897939 7888492 7903237 7909277 7881170 7808161 
1018.713 7698906 7577002 7474682 7422200 7437637 7525418 7676007 7870710 
1022.570 8083965 8289896 8463251 8581046 8626908 8592165 8477780 8296279 
1026.427 8070261 7828774 7600133 7408887 7271025 7193907 7178984 7224227 
1030.284 7325309 7472896 7651220 7834104 7985509 8069012 8052877 7923348 
1034.142 7690913 7392102 7080934 6814718 6643365 6593608 6666346 6837876 
1037.999 7070494 7318872 7542477 7713038 7814233 7841628 7798513 7693477 
1041.857 7538735 7350987 7153720 6974691 6843800 6787793 6821585 6941763 
1045.714 7124651 7330633 7508730 7612744 7615070 7512539 7328982 7107508 
1049.571 6901161 6753869 6692422 6720486 6822864 6972873 7143885 7318030 
1053.429 7486413 7646802 7799356 7938904 8055105 8133726 8160802 8130417 
1057.286 8046936 7925912 7788426 7656750 7546657 7462749 7399012 7340304 
1061.144 7268970 7168272 7029779 6855312 6657766 6457148 6276725 6136634 
1065.001 6047757 6008482 6007037 6026120 6049537 6070201 6091840 6128435 
1068.859 6196087 6306611 6460343 6646091 6843766 7031430 7193840 7324466 
1072.716 7426481 7508056 7577744 7639417 7691048 7725416 7734152 7710610 
1076.573 7651624 7559705 7441547 7308224 7172685 7050254 6954893 6896515 
1080.431 6877765 6892307 6925703 6960550 6983513 6991358 6991965 7000854 
1084.288 7035134 7104038 7203710 7317187 7420178 7490694 7513820 7487559 
1088.146 7419605 7323691 7212504 7095147 6977250 6863223 6759018 6672839 
1092.003 6612380 6582035 6580589 6602186 6639934 6690135 6753532 6832962 
1095.860 6927353 7025435 7104140 7133510 7084942 6943480 6715674 6430783 
1099.718 6133139 5867571 5670440 5557896 5528128 5566857 5657516 5785598 
1103.575 5940960 6116740 6304258 6491856 6667119 6819060 6942099 7037020 
1107.433 7107642 7156617 7182252 7178277 7137384 7057966 6948530 6826533 
1111.290 6715977 6637108 6599091 6598519 6622439 6655343 6687611 6719678 
1115.148 6760499 6822527 6914021 7034595 7175380 7322646 7461333 7579362 
1119.005 7668284 7720593 7728216 7683494 7581587 7425065 7228304 7017185 
1122.862 6820373 6664798 6564274 6516577 6505915 6510455 6512406 6502955 
1126.720 6485567 6472618 6479681 6518528 6594886 6706656 6846695 7002706 
1130.577 7160356 7304854 7421054 7498279 7533711 7535464 7521440 7516349 
1134.435 7544095 7616520 7730240 7866392 7998908 8104423 8173362 8213577 
1138.292 8249303 8310126 8420379 8592435 8822648 9094766 9386389 9676852 
1142.150 9948625 10188276 10384482 10525306 10600504 10605393 10545878 
1145.525 10440820 10319229 10214972 10154255 10149879 10197672 10280279 
1148.900 10372843 10452360 10505210 10527139 10523031 10502290 10475881 
1152.275 10454022 10445198 10457451 10495501 10560475 10646785 10742993 
1155.651 10831682 10895722 10923549 10912574 10870649 10812183 10753455 
1159.026 10704276 10666343 10631979 10589504 10528123 10444316 10343897 
1162.401 10242417 10159953 10114878 10119525 10175488 10272508 10390320 
1165.776 10504768 10592254 10634594 10623830 10561529 10457993 10327305 
1169.151 10185393 10045256 9915945 9803923 9713784 9649071 9611298 9598223 
1173.009 9601305 9605438 9591989 9542366 9445035 9299890 9119061 8924203 
1176.866 8739913 8588582 8484436 8432913 8431291 8472205 8544447 8633702 
1180.724 8724327 8797389 8834077 8820551 8751137 8632384 8482544 8328972 
1184.581 8197639 8107799 8065941 8065366 8090413 8122281 8146623 8155569 
1188.439 8148513 8129270 8102262 8071442 8039004 8007851 7982269 7967723 
1192.296 7969445 7989154 8023883 8066548 8108271 8142335 8166373 8183323 
1196.153 8198112 8214050 8228739 8232689 8212901 8156549 8057839 7921256 
1200.011 7762688 7605696 7473806 7386878 7354188 7373937 7433019 7512539 
1203.868 7591905 7652906 7684539 7683527 7655030 7609911 7563549 7531520 
1207.726 7526227 7555693 7621545 7719615 7840851 7974237 8107664 8230326 
1211.583 8334377 8415177 8471428 8504541 8518699 8519442 8512683 8505013 
1215.441 8502513 8510284 8533127 8574693 8636677 8718546 8816933 8925049 
1219.298 9034375 9137232 9227523 9304393 9370510 9433284 9500201 9577559 
1223.155 9667806 9769830 9878523 9987343 10089884 10180305 10253612 10306064 
1227.013 10334430 10337620 10317125 10278718 10231799 10187360 10155645 
1230.388 10141943 10145742 10160937 10179049 10191940 10194518 10185019 
1233.763 10163955 10130886 10083610 10018503 9932624 9827308 9709683 9591685 
1237.621 9486586 9404672 9347658 9310080 9280291 9247052 9203561 9150497 
1241.478 9095037 9047772 9016682 9004639 9007278 9016581 9022264 9016140 
1245.336 8994626 8957383 8907259 8849023 8789917 8738797 8706342 8703098 
1249.193 8735416 8802089 8891702 8984613 9056568 9085326 9059140 8979641 
1253.050 8862550 8730751 8609706 8517651 8462340 8441663 8446866 8467576 
1256.908 8496229 8531437 8575267 8631945 8703740 8788497 8879865 8968681 
1260.765 9046047 9106339 9148704 9177333 9199331 9222751 9254262 9295524 
1264.623 9343120 9387574 9417065 9419301 9387811 9324061 9240283 9155472 
1268.480 9091755 9068037 9093448 9164846 9267902 9382157 9486010 9564078 
1272.338 9611196 9631319 9634673 9631658 9630200 9632369 9635858 9636367 
1276.195 9631759 9622680 9614245 9612924 9624577 9651002 9689354 9732454 
1280.052 9772270 9802839 9822631 9835069 9847034 9865337 9894420 9933845 
1283.910 9979512 10025725 10068383 10106976 10145538 10190616 10248048 
1287.285 10320518 10405252 10495874 10584818 10666717 10740615 10809500 
1290.660 10878054 10948625 11019547 11085212 11138411 11174005 11193452 
1294.036 11204502 11221366 11258191 11325525 11425864 11553414 11695331 
1297.411 11836886 11966328 12075537 12161874 12226077 12268747 12290185 
1300.786 12289675 12267520 12226383 12173119 12117443 12069268 12036803 
1304.161 12023518 12027912 12043684 12062966 12078296 12084395 12080238 
1307.536 12067701 12051281 12035747 12024812 12019225 12016603 12010982 
1310.912 11994530 11959448 11899678 11812848 11701493 11572129 11433552 
1314.287 11294339 11162786 11044051 10944072 10867862 10819486 10800872 
1317.662 10808174 10832327 10857739 10868406 10852099 10805254 10733959 
1321.037 10652116 10576874 10522081 10495739 10498590 10525271 10567707 
1324.413 10618601 10673101 10728898 10786164 10844319 10902347 10959839 
1327.788 11016930 11077156 11145312 11227963 11329300 11449269 11582849 
1331.163 11721610 11856397 11981178 12094649 12201062 12307808 12421774 
1334.538 12547537 12685924 12834969 12992156 13156743 13331916 13523157 
1337.914 13735205 13968571 14214113 14454760 14668909 14838556 14957063 
1341.289 15029329 15068365 15089530 15107404 15132552 15171117 15225333 
1344.664 15294658 15377141 15470180 15572375 15682803 15801232 15926739 
1348.039 16057579 16190933 16323261 16451878 16575750 16696144 16816710 
1351.415 16942270 17077550 17225524 17386828 17558782 17735912 17912112 
1354.790 18082616 18246518 18408130 18578138 18771774 19006304 19299500 
1358.165 19666732 20120856 20672464 21332960 22116300 23040404 24123196 
1361.540 25373482 26775328 28278140 29799726 31250280 32557674 33678092 
1364.916 34592888 35293244 35769156 36014024 36033104 35859904 35560856 
1368.291 35238868 35006616 34955188 35146852 35606708 36342172 37365076 
1371.666 38706608 40418532 42554156 45129944 48072764 51192536 54224840 
1375.041 56898728 59029848 60538260 61400716 61608768 61142216 59980524 
1378.417 58142004 55716592 52870096 49792464 46667164 43626612 40742524 
1381.792 38054292 35582112 33338320 31329334 29544930 27955640 26515680 
1385.167 25175198 23891978 22644584 21442080 20314590 19295656 18404572 
1388.542 17638384 16980686 16415058 15929181 15513822 15159177 14849082 
1391.918 14561959 14272491 13959606 13614021 13243876 12873193 12530416 
1395.293 12233881 11982438 11760758 11550114 11339945 11130626 10930005 
1398.668 10748223 10590556 10455550 10339078 10238414 10156663 10099854 
1402.043 10073910 10079404 10108604 10145538 10171825 10173928 10149439 
1405.419 10107518 10063060 10026844 10001448 9983953 9970662 9962254 9964763 
1409.276 9986632 10033151 10101210 10179355 10251033 10303553 10334261 
1412.651 10351396 10369992 10401994 10453072 10519772 10593476 10666207 
1416.026 10736778 10812659 10908463 11037390 11203380 11392359 11578050 
1419.402 11737235 11866578 11979441 12095535 12228462 12382941 12560360 
1422.777 12762999 12998233 13279507 13618569 14018429 14469216 14953497 
1426.152 15455210 15967919 16499028 17066452 17693080 18396828 19180424 
1429.527 20028620 20915152 21816214 22720268 23629882 24553500 25497604 
1432.903 26461972 27443872 28447456 29488506 30602234 31836182 33226494 
1436.278 34754492 36331076 37835096 39182112 40362824 41423496 42427508 
1439.653 43434684 44486784 45604808 46788260 48022948 49288540 50565544 
1443.028 51842988 53115852 54383140 55648340 56918444 58210460 59550904 
1446.404 60974956 62511308 64165496 65911332 67697320 69477360 71239384 
1449.779 73010816 74847408 76805784 78917336 81166256 83489744 85806408 
1453.154 88034760 90135120 92114344 94009440 95866056 97703472 99476520 
1456.529 101052368 102275576 103091928 103582560 103891760 104108992 
1459.422 104259808 104340784 104350136 104294904 104185384 104021576 
1462.316 103780280 103405400 102815872 101921640 100663584 99046904 97124608 
1465.691 94948936 92529488 89823856 86790256 83423248 79778816 75941896 
1469.066 72012952 68060392 64067020 59947200 55569364 50855180 45909456 
1472.441 41091564 36866124 33512592 31004488 29109016 27557468 26171998 
1475.817 24874078 23667914 22589886 21666982 20891126 20225054 19621074 
1479.192 19040472 18462546 17884698 17316410 16770422 16254874 15770892 
1482.567 15315800 14887518 14487132 14117235 13778058 13464983 13168970 
1485.942 12880770 12596446 12320830 12065487 11839950 11639138 11441071 
1489.318 11210180 10921340 10582815 10233765 9920623 9671770 9492513 9367937 
1493.175 9276330 9195337 9108876 9008495 8893189 8765574 8627145 8474233 
1497.032 8301751 8111040 7917206 7744878 7621410 7562032 7563852 7606910 
1500.890 7663664 7709497 7731387 7730813 7720391 7717862 7738200 7790349 
1504.747 7871182 7963472 8030499 8027090 7929422 7771526 7618678 7507921 
1508.605 7434604 7381149 7336496 7300440 7278808 7278471 7300406 7337945 
1512.462 7377543 7405550 7411550 7392473 7350987 7293971 7230157 7167261 
1516.319 7111853 7067632 7036212 7017320 7009609 7009777 7011427 7003817 
1520.177 6971493 6898468 6778841 6626274 6467304 6322042 6194104 6075006 
1524.034 5954228 5825290 5689441 5553768 5428941 5321390 5229996 5147507 
1527.892 5067078 4987167 4912799 4851814 4811642 4794254 4795694 4805912 
1531.749 4811876 4801557 4768458 4717407 4663583 4621854 4597207 4584884 
1535.607 4578321 4574069 4574605 4588702 4629690 4711981 4842700 5006037 
1539.464 5147540 5194484 5105262 4908812 4672826 4456653 4286629 4165311 
1543.321 4085197 4036133 4008911 3994798 3984733 3970087 3943939 3902948 
1547.179 3848188 3784845 3721711 3670917 3642248 3638071 3650033 3662697 
1551.036 3662931 3646324 3618425 3591930 3581774 3598078 3640878 3697851 
1554.894 3750720 3783407 3789892 3773548 3744337 3712621 3683782 3651369 
1558.751 3601820 3535506 3479490 3458347 3478688 3534270 3614549 3707442 
1562.609 3800320 3881083 3937954 3964536 3962263 3941164 3915285 3896429 
1566.466 3889140 3890110 3889575 3873628 3830337 3754096 3653742 3551106 
1570.323 3470839 3424349 3410055 3418004 3437073 3458481 3475749 3484934 
1574.181 3483231 3468200 3437808 3392056 3335223 3276361 3227088 3194910 
1578.038 3182627 3188902 3209363 3237069 3262941 3277463 3271087 3239005 
1581.896 3182293 3108234 3027314 2949612 2883531 2833002 2798719 2778810 
1585.753 2770607 2771507 2779377 2791882 2806322 2819228 2828066 2831701 
1589.610 2831768 2832435 2838972 2854914 2881063 2914186 2949012 2979570 
1593.468 3002558 3018472 3030951 3045532 3065887 3093083 3124420 3155992 
1597.325 3184996 3210798 3236268 3265578 3301968 3346142 3394393 3439711 
1601.183 3473210 3487773 3480024 3452403 3411859 3368246 3331951 3309414 
1605.040 3302736 3309247 3322135 3332719 3332285 3314956 3278598 3226087 
1608.898 3163835 3099524 3039093 2985943 2941273 2904612 2874959 2852546 
1612.755 2838205 2833969 2841807 2862418 2894072 2929430 2955751 2954750 
1616.612 2913685 2833169 2728093 2617809 2517250 2433809 2368839 2321634 
1620.470 2290655 2274734 2272702 2283261 2303313 2327397 2348750 2362642 
1624.327 2367506 2364375 2355047 2339189 2313639 2272635 2209788 2122276 
1628.185 2015042 1900779 1797592 1723635 1690205 1701048 1751513 1830232 
1632.042 1920447 2003624 2062347 2081723 2053092 1978992 1879913 1792368 
1635.900 1752444 1771740 1832561 1906802 1974133 2026060 2060449 2078227 
1639.757 2081656 2072667 2054656 2032618 2013178 2003424 2008351 2029189 
1643.614 2061981 2096206 2116183 2103397 2043970 1940782 1823644 1743362 
1647.472 1736077 1801085 1908100 2023131 2120378 2184112 2205991 2178917 
1651.329 2095873 1950334 1751746 1545467 1408457 1380534 1426972 1493630 
1655.187 1552450 1598142 1634692 1667686 1701647 1738173 1776564 1814028 
1659.044 1846603 1871294 1886103 1890562 1886136 1875321 1861311 1846903 
1662.901 1833593 1821148 1808671 1795529 1781988 1769112 1758666 1753143 
1666.759 1754740 1766018 1789107 1824110 1868466 1916354 1959421 1990642 
1670.616 2007186 2010149 2002992 1988945 1970671 1948138 1920880 1887001 
1674.474 1845206 1797192 1748253 1705639 1675003 1658340 1654215 1660102 
1678.331 1673241 1690105 1706770 1719577 1725631 1723469 1713024 1694662 
1682.189 1669548 1639281 1608551 1587001 1585704 1607886 1645701 1688708 
1686.046 1730954 1771674 1811799 1852493 1893091 1931197 1962283 1981955 
1689.903 1986748 1977594 1958289 1935990 1918484 1912427 1923842 1958056 
1693.761 2020501 2116183 2247522 2407753 2577009 2729493 2847543 2930331 
1697.618 2987177 3029016 3061449 3084774 3094084 3083206 3052239 3008630 
1701.476 2961289 2914786 2870457 2829033 2793650 2770007 2765172 2784879 
1705.333 2827633 2882931 2934534 2969762 2982073 2973265 2948511 2913852 
1709.191 2874292 2832168 2787714 2740563 2690350 2638277 2586509 2537913 
1713.048 2494856 2458000 2425545 2392993 2354580 2305445 2243325 2170892 
1716.905 2095606 2027192 1972801 1931530 1897218 1861611 1819385 1769811 
1720.763 1715618 1662896 1619825 1596146 1599738 1633927 1695626 1776698 
1724.620 1867700 1961285 2054723 2148781 2245557 2346252 2448037 2544579 
1728.478 2626209 2682582 2708154 2704553 2683382 2660345 2650878 2665913 
1732.335 2707254 2765638 2818561 2838605 2811425 2750466 2684682 2637576 
1736.193 2618675 2628009 2661646 2714089 2777610 2840973 2890769 2913819 
1740.050 2901677 2853213 2772741 2667646 2546846 2421480 2304246 2207124 
1743.907 2139025 2102399 2092244 2098403 2109557 2114884 2107160 2084120 
1747.765 2048031 2004290 1956991 1906969 1849199 1776465 1683685 1573699 
1751.622 1457923 1352780 1270293 1216628 1189582 1181375 1180645 1175295 
1755.480 1155528 1116560 1061784 1001503 948104 908656 882128 861278 837142 
1759.819 802186 753325 693950 633852 585143 555715 546160 549975 558866 
1764.159 565469 567127 563611 557904 554354 558468 575488 609032 658972 
1768.498 721396 788742 850886 897268 917190 901385 847600 765407 677124 
1772.838 607672 572701 572635 599543 642812 693120 744165 790568 828478 
1777.178 854439 865826 860846 840661 808692 770851 735170 707689 689669 
1781.517 677290 664447 646661 623632 600074 584214 584513 603624 636573 
1785.857 671549 695144 696007 669857 618157 547819 467441 385221 308554 
1790.196 243172 194275 167425 166696 191457 234420 284515 330571 365622 
1794.536 387974 399647 404954 408303 412814 419115 425881 429928 428568 
1798.876 420044 403494 379417 348975 313329 274436 235116 199081 170242 
1803.215 151747 143792 144355 148830 152277 151150 144587 134644 125331 
1807.555 119530 117111 113962 103390 78302 35454 -22663 -86769 -143744 
1811.894 -182132 -195546 -183556 -150733 -104061 -50526 3611 52487 91459 
1816.234 116647 126192 120425 103390 80854 59214 43705 36614 37012 40756 
1821.056 42678 36912 17727 -19681 -78619 -160041 -259759 -366605 -463629 
1825.395 -533494 -563012 -549478 -498116 -420333 -329095 -237506 -158384 
1829.253 -102040 -73982 -74180 -96972 -133907 -177396 -221279 -259825 
1833.110 -288170 -303633 -305984 -300289 -295190 -300852 -323334 -362368 
1836.968 -408847 -449661 -470513 -462735 -425927 -367565 -297474 -224358 
1840.825 -153780 -87166 -25214 29059 68924 81981 57126 -9277 -108036 -220119 
1845.647 -326181 -412687 -475114 -514465 -534322 -538028 -527802 -506258 
1849.504 -476868 -446185 -422253 -411561 -417586 -438175 -465350 -486731 
1853.362 -491662 -473757 -434203 -380046 -320652 -264527 -216410 -177860 
1857.219 -148812 -130495 -126421 -142254 -182397 -247242 -330320 -419771 
1861.077 -499738 -557387 -585911 -584422 -557023 -508971 -443206 -359421 
1864.934 -255520 -129269 17395 176010 331665 462001 542013 554819 499484 
1869.274 394838 270192 153934 63191 1988 -35087 -58610 -79911 -107738 
1873.613 -144374 -184981 -219457 -237307 -231346 -203892 -165837 -135430 
1877.471 -130197 -159279 -220086 -298302 -372300 -419671 -428940 -401399 
1881.328 -351443 -299395 -264726 -259130 -282640 -323930 -365579 -389713 
1885.185 -381900 -334988 -249527 -131985 5434 144223 260577 330637 334484 
1889.525 267871 145416 -1557 -135894 -228630 -263534 -241248 -175674 -89817 
1893.865 -8482 44865 54111 13452 -74379 -200514 -353926 -522474 -693306 
1898.204 -851074 -978471 -1059889 -1083059 -1043957 -945245 -798921 -623929 
1902.062 -442842 -283137 -170971 -124897 -151859 -243102 -374187 -508045 
1905.919 -608146 -645799 -612183 -521018 -406099 -307639 -256547 -263700 
1909.776 -315288 -381768 -428675 -436222 -403848 -348595 -294693 -265157 
1913.634 -273170 -320519 -401001 -506390 -632101 -776960 -937872 -1105004 
1917.491 -1256247 -1364005 -1408395 -1389470 -1328034 -1258725 -1215773 
1920.867 -1218978 -1269561 -1345177 -1405390 -1405852 -1318223 -1142349 
1924.242 -906660 -652085 -421128 -246944 -144506 -112243 -135728 -192962 
1928.099 -260223 -318698 -356806 -371306 -367069 -353462 -342139 -343166 
1931.957 -360249 -390408 -424736 -450290 -455817 -437910 -400935 -358263 
1935.814 -326810 -323135 -356409 -427384 -524923 -631473 -726683 -791017 
1939.672 -812150 -783806 -709482 -602058 -486334 -391368 -343629 -357501 
1943.529 -429271 -540642 -662440 -766177 -830108 -843336 -808744 -742495 
1947.386 -669255 -615326 -606459 -658404 -773884 -940749 -1133426 -1315745 
1951.244 -1447662 -1496535 -1442874 -1289383 -1057807 -786320 -517973 
1954.619 -287243 -120458 -30647 -20873 -88061 -226975 -424670 -660223 
1958.476 -902163 -1107020 -1227932 -1234243 -1119513 -914000 -674945 -473260 
1962.334 -366043 -383291 -517146 -731116 -968454 -1168984 -1290110 -1308643 
1966.191 -1223868 -1054567 -836458 -612547 -426854 -317076 -300289 -373591 
1970.049 -508673 -662076 -781888 -826470 -784567 -684705 -591304 -578433 
1973.906 -712360 -1019727 -1475071 -2000096 -2490028 -2840779 -2981678 
1977.281 -2892984 -2602947 -2177139 -1692332 -1224067 -829579 -533958 
1980.657 -335286 -211012 -127712 -50327 42413 154299 267672 351097 368706 
1984.996 293302 117575 -142188 -450091 -762671 -1038272 -1253802 -1407371 
1988.854 -1511889 -1586703 -1649259 -1711013 -1780348 -1865872 -1976711 
1992.229 -2121551 -2301577 -2501657 -2694269 -2839561 -2901278 -2857139 
1995.604 -2707539 -2473917 -2196359 -1920437 -1681342 -1499011 -1371404 
1998.979 -1277259 -1184284 -1059889 -879844 -634880 -333068 -1491 312599 
2002.837 558103 684359 654592 458983 120260 -307573 -751392 -1132171 
2006.694 -1395283 -1523445 -1538567 -1488643 -1424446 -1382171 -1370049 
2010.069 -1368233 -1341346 -1257073 -1096114 -864103 -586904 -305852 -64308 
2013.927 101865 170839 134246 -6262 -241910 -560365 -940980 -1348117 
2017.784 -1737151 -2053292 -2243895 -2274055 -2131970 -1839478 -1453706 
2021.160 -1063327 -756718 -603977 -626046 -785923 -995827 -1142019 -1124933 
2025.017 -888276 -443405 137693 739485 1250188 1589029 1721573 1665524 
2028.874 1477039 1226397 971249 746488 559397 399382 249338 95801 -64871 
2033.214 -230054 -394414 -550338 -690362 -807454 -893698 -942633 -953478 
2037.071 -931623 -887978 -834639 -778018 -717322 -645269 -550405 -428476 
2040.929 -285256 -138246 -7355 90233 152244 190728 229613 294528 398918 
2045.268 537136 684624 802418 848529 794684 631496 374974 59512 -272541 
2049.608 -582834 -845916 -1049477 -1190926 -1272667 -1298204 -1269099 
2052.983 -1185407 -1050105 -868964 -655856 -432846 -225551 -60366 41717 
2056.841 71409 29158 -73982 -221676 -393752 -573138 -745174 -899220 -1028586 
2061.180 -1127478 -1190628 -1214121 -1193602 -1127280 -1016951 -867873 
2064.555 -690130 -498281 -312705 -157523 -57682 -34988 -98827 -242440 
2068.413 -438042 -644508 -810827 -891152 -859275 -716660 -491960 -235651 
2072.270 -8747 137859 169082 75187 -128938 -407357 -711996 -995728 -1217359 
2076.610 -1352444 -1396010 -1363642 -1285882 -1198889 -1136566 -1115349 
2079.985 -1132071 -1165382 -1185870 -1165217 -1089867 -961875 -798359 
2083.360 -620720 -444133 -274395 -109957 52255 206142 335147 413875 419215 
2087.700 342542 196893 16103 -158252 -288369 -357137 -373789 -368526 -377663 
2092.040 -429867 -534421 -680073 -840261 -981975 -1080481 -1120339 -1097535 
2095.897 -1016091 -885233 -718248 -534388 -360746 -226379 -157060 -165473 
2099.754 -244294 -366076 -489842 -576348 -597194 -544977 -430992 -279329 
2103.612 -114959 44203 185059 300563 381540 414936 387675 291909 131164 
2107.951 -76201 -299097 -504437 -667700 -776232 -832919 -847668 -831166 
2111.809 -788139 -718149 -619429 -496163 -359521 -227571 -116881 -37009 
2115.666 13684 43705 63853 76049 70581 28231 -69973 -232638 -449826 -694431 
2120.488 -928218 -1115349 -1235234 -1284527 -1274253 -1220829 -1137855 
2123.863 -1030008 -896344 -735846 -553979 -367698 -202434 -82827 -28428 
2127.721 -44662 -123307 -245785 -389216 -532667 -659429 -758008 -822402 
2131.578 -852761 -856432 -849950 -855506 -893037 -972653 -1086463 -1207909 
2135.436 -1296651 -1317364 -1252018 -1111251 -930069 -756718 -636469 -595242 
2139.293 -632962 -728404 -852000 -976355 -1087389 -1187621 -1286476 -1396307 
2143.150 -1522389 -1661868 -1804239 -1933731 -2029382 -2070704 -2036275 
2146.526 -1911003 -1694247 -1409749 -1103716 -838309 -676500 -655294 -772363 
2150.383 -979661 -1197964 -1341048 -1345442 -1197237 -933839 -629090 -362600 
2154.240 -198394 -159842 -228564 -357170 -497024 -617709 -721192 -836193 
2158.098 -998736 -1231237 -1520044 -1815721 -2049170 -2158182 -2099920 
2161.473 -1874483 -1521497 -1123148 -779871 -591966 -633226 -926862 -1435939 
2165.331 -2065592 -2690943 -3175229 -3414523 -3362742 -3034327 -2495628 
2168.706 -1842546 -1180748 -594878 -143744 150023 293302 315915 258124 
2172.563 157050 46125 -51553 -126056 -175972 -204852 -218265 -218364 -201971 
2176.903 -166301 -112839 -52348 -6891 -4042 -64871 -196937 -385773 -596930 
2181.242 -783674 -903883 -934202 -876272 -752252 -596367 -444960 -323466 
2185.100 -250619 -238135 -293865 -422187 -622738 -882026 -1171529 -1452880 
2188.957 -1682860 -1826445 -1870095 -1821858 -1707713 -1558641 -1402318 
2192.333 -1255223 -1124702 -1013612 -929607 -884440 -893897 -967925 -1104806 
2196.190 -1284626 -1478373 -1651602 -1778038 -1846604 -1857888 -1818031 
2199.565 -1729396 -1587726 -1382700 -1108111 -772098 -401001 -40786 252886 
2203.423 435533 480112 391389 202065 -35253 -266647 -450687 -567050 -618503 
2207.762 -626146 -621580 -632763 -677526 -757545 -858680 -955792 -1020686 
2211.620 -1034603 -990967 -900874 -785592 -670545 -572840 -495336 -426854 
2215.477 -350880 -252507 -132250 -6461 92387 130634 84201 -49433 -249560 
2219.817 -476702 -682587 -826669 -885796 -856564 -755428 -613010 -464390 
2223.674 -339391 -259825 -232604 -251215 -297938 -350184 -387693 -399611 
2227.531 -387396 -365447 -353926 -368526 -415335 -485771 -562284 -625219 
2231.389 -664855 -684572 -700947 -731116 -782649 -844262 -888805 -881662 
2235.246 -798888 -640571 -438539 -246877 -122777 -108699 -213827 -410767 
2239.104 -642391 -844361 -964718 -975331 -880174 -704884 -488816 -267375 
2242.961 -69277 88974 199844 262103 276359 245261 173955 69620 -58643 
2247.301 -202136 -355217 -514531 -676335 -834110 -973975 -1074994 -1115283 
2251.158 -1075787 -949543 -745240 -488617 -214191 40027 240686 369435 421304 
2255.498 404821 335545 231735 109090 -22265 -154973 -284561 -406827 -516385 
2259.837 -607650 -674846 -715370 -729065 -720365 -695655 -660885 -619992 
2263.695 -575124 -524956 -470447 -415732 -369221 -343364 -349820 -394016 
2267.552 -472731 -573403 -676599 -761481 -814168 -828091 -805437 -752947 
2271.410 -677526 -582106 -467865 -335915 -193260 -55495 55337 117741 116680 
2275.749 52487 -59703 -190545 -308798 -390143 -423610 -413349 -374716 
2279.607 -326810 -283468 -250255 -223961 -196208 -157722 -103995 -35319 
2283.464 42413 120790 190628 243238 271717 272314 243404 188043 114062 33798 
2288.286 -38831 -90214 -111614 -101146 -64407 -12325 41021 82279 101368 
2292.625 93083 57193 -1656 -75008 -150468 -216609 -261017 -276183 -260223 
2296.965 -218563 -161498 -101709 -49333 -8084 26342 65312 122381 208628 
2301.305 327885 474108 631795 780776 901584 979917 1012064 1004824 974537 
2305.644 941031 923100 933693 975434 1041291 1116826 1186492 1236997 1262882 
2309.984 1267368 1259426 1250022 1247464 1254309 1267800 1281857 1291229 
2313.841 1294054 1293156 1293422 1298740 1310671 1326823 1344238 1362419 
2317.699 1384523 1419194 1475743 1560098 1670147 1795529 1920281 2029522 
2321.556 2114751 2176653 2224308 2267839 2313173 2359144 2397958 2419281 
2325.414 2417116 2393127 2357912 2327330 2316504 2336125 2388829 2469329 
2329.271 2567643 2673881 2780411 2882264 2976268 3057712 3120949 3160598 
2333.128 3172947 3159296 3124553 3078100 3029183 2985843 2954416 2938303 
2336.986 2940372 2961655 3000856 3051539 3102327 3138570 3147281 3122250 
2340.843 3069858 3007629 2958419 2940405 2958753 3000356 3037458 3037424 
2344.701 2977969 2855348 2688583 2508486 2349017 2232434 2167462 2151378 
2348.558 2176120 2232401 2312773 2412351 2527315 2652645 2781911 2907581 
2352.416 3023811 3129059 3227055 3325006 3428857 3540149 3655112 3766128 
2356.273 3865939 3951931 4025498 4089077 4141994 4177588 4185483 4158954 
2360.130 4100650 4027404 3964837 3940228 3968114 4043892 4141593 4225597 
2363.988 4260161 4224426 4118277 3960892 3780132 3602187 3445289 3315190 
2367.845 3208962 3119781 3040794 2967861 2897241 2825031 2746165 2655778 
2371.703 2551512 2435375 2312706 2190539 2074632 1966843 1865138 1765220 
2375.560 1663428 1558269 1451440 1345834 1244240 1147588 1055308 966600 
2379.417 882194 804576 737759 685155 647092 619518 595760 567857 530169 
2383.757 481638 425483 367180 311903 261771 215590 170740 125596 82511 49041 
2388.579 35421 50234 96861 169845 256002 336241 391124 407209 378389 307559 
2393.401 204684 84798 -36545 -144572 -226643 -274627 -284594 -258732 -204653 
2397.740 -134933 -64904 -7985 25712 32969 17230 -12226 -44894 -70867 -83953 
2402.562 -82661 -69874 -51189 -33066 -21437 -19515 -27334 -41249 -54601 
2406.902 -59339 -48107 -17229 31047 88410 143593 182905 196197 179656 135771 
2411.723 73364 3280 -63678 -120723 -164876 -197202 -219755 -234724 -242109 
2416.063 -240718 -228034 -202236 -162227 -109162 -46550 20874 86554 143129 
2420.403 184396 205313 204617 184595 151183 111311 71807 36382 5732 -22729 
2425.224 -51884 -83092 -114463 -141260 -157921 -159842 -145864 -119100 
2429.082 -85874 -52746 -25777 -8084 -728 -3247 -14512 -33861 -59570 -88326 
2433.904 -114661 -131588 -132151 -112641 -74081 -22166 33069 80722 113366 
2438.243 127518 125032 111311 93050 76049 63688 57060 55469 57391 60208 
2443.065 61534 58684 49405 33201 11762 -11132 -29190 -37340 -32735 -16500 
2447.887 6328 29225 46688 56762 62197 69056 84069 110615 148233 190993 
2452.708 230176 256334 263628 249935 217678 171933 119298 66737 20112 -15373 
2457.530 -35186 -37075 -20774 10901 52056 94839 132523 159536 173955 176640 
2462.352 169712 155227 134644 108295 77176 43739 12690 -10039 -20045 -15638 
2467.174 0 20709 39099 50731 55801 59148 68062 88510 121188 160829 196728 
2472.478 218109 217181 193579 153934 110648 76745 61136 66770 90266 123806 
2477.300 158939 189733 214231 233956 251858 269629 286637 298772 299734 
2481.639 283322 245327 185689 108792 23260 -59570 -128905 -175873 -196175 
2485.979 -189816 -161432 -118139 -66892 -13816 37343 85030 128313 165900 
2490.318 195800 215524 223612 220496 208927 193479 178894 167922 161558 
2494.658 157580 153404 147869 142201 139848 145184 161028 186153 215126 
2498.998 239592 251162 244432 218043 175115 121983 65709 11729 -34888 -70702 
2503.819 -92102 -94951 -76102 -35253 24287 94409 163447 219667 254941 266512 
2508.641 257627 235613 208728 183137 161028 142168 125629 112073 105876 
2512.981 113333 141107 192054 264258 348610 432680 502868 547553 560658 
2517.320 542146 497328 434770 364925 297944 242111 203921 186949 191324 
2521.660 214761 251792 296219 340983 380777 412051 434306 448501 457789 
2526.000 465749 476098 491921 515838 548184 588096 632326 676461 714659 
2530.339 742273 755782 754387 739551 714128 681372 643674 602662 558966 
2534.679 513616 468303 425649 389167 362737 349539 351661 369601 403130 
2539.018 449961 506583 568222 628211 679713 716949 735801 736265 722027 
2543.358 699691 676593 658640 648386 644637 642646 635909 618920 588162 
2547.698 543274 487211 425948 366119 315351 280205 265551 273972 304575 
2552.037 353783 414970 479747 539956 588461 620447 634051 630501 613346 
2556.377 588494 563445 545695 542079 556610 589191 634383 682600 722193 
2560.716 742538 737925 709813 666804 621708 588196 576119 588959 622869 
2565.056 669591 719936 766436 806369 841126 874657 910483 949631 989415 
2569.396 1024851 1050292 1061153 1056869 1039929 1015651 990112 969058 
2573.253 955841 951823 956538 969058 988950 1017279 1055972 1107491 1173269 
2577.593 1251584 1337059 1421321 1494328 1547329 1575694 1580949 1571039 
2581.450 1557504 1552650 1565718 1599040 1647696 1700749 1745026 1768247 
2585.307 1763124 1728958 1672010 1603197 1536057 1484321 1458521 1465403 
2589.165 1505998 1576027 1666023 1763290 1854989 1929899 1981855 2010981 
2593.022 2022898 2026793 2031886 2044736 2066342 2092477 2114718 2124474 
2596.880 2114785 2083621 2033683 1972602 1909897 1855022 1815492 1795229 
2600.737 1793832 1807939 1831031 1856220 1876519 1887401 1886702 1876485 
2604.594 1860413 1845305 1836987 1840481 1857384 1886169 1921346 1955993 
2608.452 1982920 1996467 1994803 1979225 1955427 1930731 1912127 1904573 
2612.309 1909332 1924308 1944177 1963781 1979258 1989211 1996101 2003191 
2616.167 2014443 2031487 2053891 2079126 2104463 2127970 2150279 2173556 
2620.024 2200197 2231602 2266540 2301248 2331528 2354047 2368106 2376335 
2623.882 2383298 2393393 2409052 2428977 2448703 2462298 2464831 2453668 
2627.739 2430143 2398491 2364775 2334925 2313872 2304445 2307677 2323133 
2631.596 2348750 2381232 2416449 2449069 2474394 2489257 2493089 2488391 
2635.454 2480326 2475094 2478727 2494356 2521550 2557378 2595942 2630976 
2639.311 2657578 2673047 2677981 2675681 2671614 2671880 2681482 2703586 
2643.169 2737229 2779210 2822730 2860984 2888401 2902077 2902678 2894072 
2647.026 2882031 2871457 2865987 2866721 2872891 2882698 2894839 2908648 
2650.884 2924693 2943174 2964024 2986076 3007596 3027081 3044298 3060214 
2654.741 3077332 3098556 3125655 3158896 3196479 3235100 3270452 3298897 
2658.598 3317594 3325106 3321767 3309113 3290150 3268683 3249321 3236735 
2662.456 3234365 3244580 3267515 3301468 3342669 3387214 3430828 3469102 
2666.313 3499196 3518136 3524549 3518470 3501969 3479222 3455809 3437808 
2670.171 3429759 3433466 3447259 3467031 3487473 3504173 3515296 3521576 
2674.028 3525718 3530261 3537176 3545995 3555483 3564001 3571217 3578634 
2677.885 3588589 3603022 3621732 3641914 3658687 3666673 3662095 3644419 
2681.743 3616621 3584280 3552910 3527522 3510286 3500466 3496090 3494186 
2685.600 3492316 3488541 3482028 3471908 3458281 3441949 3424215 3407584 
2689.458 3394360 3386345 3383841 3385544 3388382 3390086 3388616 3384342 
2693.315 3379166 3375860 3376161 3380268 3385911 3389418 3386913 3375626 
2697.173 3354690 3325640 3290751 3252959 3214437 3177086 3141974 3111104 
2701.030 3086643 3071159 3067355 3076665 3099324 3133864 3177253 3225786 
2704.887 3275527 3322769 3364173 3397132 3420007 3432731 3436672 3434568 
2708.745 3430460 3428657 3432898 3445656 3467933 3499464 3538947 3584814 
2712.602 3635097 3687491 3739791 3788923 3832610 3868747 3896830 3917859 
2716.460 3934176 3949189 3966041 3987174 4013860 4045363 4080481 4116638 
2720.317 4151059 4180431 4201977 4213887 4215359 4207798 4194851 4181402 
2724.175 4172938 4173975 4186888 4211311 4244435 4282212 4320394 4355266 
2728.032 4384318 4405572 4417254 4417086 4403129 4373373 4327757 4268125 
2731.889 4198598 4124533 4052119 3986740 3932069 3889943 3860858 3843241 
2735.747 3834549 3831240 3828566 3821546 3805902 3779062 3741462 3696380 
2739.604 3649799 3608401 3577932 3561162 3557220 3561963 3568912 3572353 
2743.462 3567476 3552209 3527255 3495656 3461053 3427388 3398100 3375192 
2747.319 3359531 3350315 3345674 3342769 3338629 3330949 3319030 3304272 
2751.177 3289215 3277830 3273557 3278465 3292821 3314823 3341901 3370784 
2755.034 3398801 3424315 3446558 3465562 3481694 3495890 3509184 3523213 
2758.891 3539314 3558355 3580070 3603123 3624539 3640911 3649732 3650100 
2762.749 3643551 3633560 3624806 3622000 3628214 3644486 3670215 3703565 
2766.606 3742532 3786215 3834282 3887034 3944775 4006771 4070781 4134066 
2770.464 4193479 4246108 4290745 4327489 4357910 4384117 4408484 4432585 
2774.321 4457122 4482263 4507907 4534592 4563789 4598212 4641144 4695736 
2778.178 4763869 4845079 4936225 5032148 5126585 5213933 5291437 5359429 
2782.036 5421694 5483833 5552123 5630259 5719185 5815551 5914390 6009254 
2785.893 6095637 6171384 6238337 6300425 6362825 6429908 6503325 6582170 
2789.751 6662880 6741417 6814214 6879885 6939776 6997689 7058707 7127481 
2793.608 7207955 7301215 7406898 7523024 7647240 7777193 7911099 8048151 
2797.466 8187745 8329277 8472205 8615552 8758507 8900596 9041648 9182037 
2801.323 9322030 9461831 9601305 9740044 9877810 10014875 10152457 10292594 
2805.180 10437732 10590556 10752911 10925690 11108768 11300903 11499824 
2808.556 11703160 11908123 12112502 12314592 12513978 12711682 12910090 
2811.931 13112620 13323374 13545648 13780897 14028660 14287180 14553358 
2815.306 14824602 15099857 15379612 15665835 15961217 16268048 16587386 
2818.681 16918844 17261104 17612710 17972544 18340936 18719154 19109890 
2822.057 19516642 19943376 20394628 20874996 21388508 21938418 22525670 
2825.432 23149536 23807266 24496390 25215892 25968528 26761196 27605874 
2828.807 28516412 29506522 30587836 31767626 33048548 34430376 35911836 
2832.182 37493176 39178012 40973428 42890572 44943452 47146664 49515940 
2835.558 52066272 54810192 57758104 60916432 64287232 67867352 71650088 
2838.933 75624952 79778848 84098920 88570936 93181176 97917792 102768648 
2842.308 107724216 112777328 117922608 123156384 128475248 133872448 
2845.201 139337456 144851776 150387328 155907984 161364752 166696112 
2848.094 171833264 176693024 181186992 185227280 188724464 191601168 
2850.987 193792576 195249184 195942656 195865632 195035264 193489952 
2853.880 191292384 188521776 185262800 181607392 177640080 173435920 
2856.773 169065760 164591136 160070496 155562256 151118720 146789840 
2859.667 142620064 138643712 134890624 131384968 128145368 125188992 
2862.560 122528512 120171080 118117760 116361432 114887808 113676568 
2865.453 112705336 111949528 111383488 110981808 110713560 110543304 
2868.346 110430952 110328080 110185344 109954720 109590512 109057784 
2871.239 108331888 107400696 106266320 104944368 103463080 101859096 
2874.132 100177528 98465416 96767184 95126064 93577904 92152648 90875592 
2877.507 89765592 88837144 88100784 87561408 87220592 87075248 87120680 
2880.882 87349944 87756024 88332344 89072200 89968088 91012408 92195336 
2884.258 93507464 94939168 96481760 98128896 99875128 101715296 103644176 
2887.633 105654304 107736744 109881232 112076080 114310048 116571776 
2890.526 118850576 121137672 123425160 125707240 127980472 130243016 
2893.419 132493960 134731104 136951648 139150848 141324336 143469168 
2896.312 145586096 147679712 149758704 151832032 153909312 155996528 
2899.205 158097008 160211488 162339600 164481424 166638864 168815104 
2902.098 171015024 173244544 175510464 177820288 180182448 182604496 
2904.991 185093200 187652848 190285072 192989520 195765952 198615424 
2907.884 201542832 204555520 207663120 210874880 214197280 217633536 
2910.777 221183632 224845248 228615072 232488128 236458144 240514336 
2913.670 244641824 248820864 253025440 257226256 261389584 265473664 
2916.563 269432672 273210336 276742272 279965088 282813568 285229952 
2919.457 287167840 288586464 289452320 289735392 289407904 288449632 
2922.350 286852224 284623840 281790688 278395872 274494336 270143456 
2925.243 265404784 260338880 255003808 249461248 243769296 237982160 
2928.136 232148304 226305168 220481088 214696832 208966960 203303904 
2931.029 197718976 192221200 186819104 181518816 176325424 171245024 
2933.922 166284288 161451904 156758112 152212016 147822576 143598464 
2936.815 139548160 135682352 132013976 128555912 125320168 122314296 
2939.708 119539168 116990816 114662152 112547472 110646352 108965024 
2942.601 107515736 106314776 105374968 104703984 104300464 104153880 
2945.494 104246336 104556384 105062600 105743392 106580232 107554320 
2948.387 108644496 109827768 111075680 112353880 113626808 114853584 
2951.280 115992896 117006960 117859896 118524144 118980584 119218760 
2954.173 119236064 119034976 118619440 117993696 117161848 116129288 
2957.066 114905080 113503336 111943184 110244704 108427864 106506640 
2959.959 104488312 102374296 100161384 97846024 95426984 92907816 90297888 
2963.335 87611552 84865872 82080552 79274568 76464816 73666256 70890536 
2966.710 68146864 65443068 62786012 60183404 57643440 55173700 52782720 
2970.085 50477664 48265012 46150232 44137796 42230228 40427988 38728708 
2973.460 37126520 35613508 34181024 32821034 31528130 30300138 29137680 
2976.836 28041800 27012776 26048032 25141666 24286312 23473098 22695236 
2980.211 21948178 21230306 20542382 19886068 19263198 18674668 18120512 
2983.586 17600150 17112600 16656308 16229214 15828069 15448412 15085106 
2986.961 14732763 14387077 14045293 13707095 13374319 13049959 12736931 
2990.337 12437868 12153254 11881970 11621269 11367154 11115295 10862596 
2993.712 10606820 10347867 10087849 9829883 9578236 9336316 9107185 8891837 
2997.569 8689914 8499471 8317996 8142504 7969681 7796826 7621578 7441682 
3001.427 7255998 7064634 6869214 6673041 6480757 6297500 6127998 5975660 
3005.284 5842014 5726269 5626566 5539773 5463164 5393445 5328233 5265378 
3009.142 5202800 5138287 5070028 4996216 4915346 4827154 4731610 4630394 
3012.999 4526657 4424250 4327757 4241423 4167685 4106838 4055965 4009646 
3016.856 3961728 3906726 3842371 3770005 3694676 3623102 3562097 3514762 
3020.714 3480492 3454373 3429659 3399469 3359899 3310850 3255797 3199950 
3024.571 3148349 3103762 3066054 3032553 2999221 2962756 2920323 2870590 
3028.429 2813225 2748266 2676114 2598208 2517517 2439340 2370438 2318369 
3032.286 2288490 2282827 2297650 2325764 2356213 2377768 2381965 2363842 
3036.144 2323632 2265474 2196700 2125206 2058185 2001594 1958389 1929566 
3040.001 1913325 1906137 1903042 1899081 1890795 1876319 1856553 1833859 
3043.858 1811399 1791536 1774468 1758666 1741632 1720741 1695460 1667120 
3047.716 1639448 1616466 1601268 1594251 1593286 1594317 1592289 1583476 
3051.573 1566217 1540812 1509323 1473981 1437278 1400578 1365145 1331708 
3055.431 1301199 1274447 1251617 1231913 1214103 1196493 1177987 1158651 
3059.288 1139947 1124532 1115098 1112906 1117955 1127921 1139847 1150578 
3063.146 1158219 1162106 1162903 1161142 1156923 1149315 1136359 1116095 
3067.003 1088092 1053115 1014422 976297 942359 915629 897235 885913 880003 
3071.343 877247 876019 875952 877679 882094 890063 901020 913039 922768 
3075.682 925956 918717 898563 865893 823797 777987 735203 701317 679248 
3080.022 667766 661959 654890 640256 615005 581361 545729 516701 502271 
3084.361 506417 527781 559430 591779 615868 626021 621542 606378 587598 
3088.701 571706 562980 562649 569118 579503 591912 604951 619086 634449 
3093.041 649647 662025 666804 659868 638896 604819 562018 517497 478553 
3097.380 450691 436594 435765 444621 458717 473312 484192 487874 482334 
3101.720 466048 439347 403627 362538 320822 283885 256732 242244 240586 
3106.059 248742 262036 274204 279874 275795 260644 236309 206275 175612 
3110.399 149891 134511 133948 150984 186153 236973 298507 363301 423128 
3114.739 469995 497958 504327 489897 458983 417291 371558 327719 289257 
3119.078 257660 232165 210584 190098 169115 146908 125529 107732 97855 98916 
3123.900 112305 136169 166364 197225 222419 237636 241282 234950 222419 
3128.240 208131 195899 186750 180253 173756 165304 154166 141671 131628 
3132.579 128148 134578 151316 175877 202628 225071 236840 234818 219004 
3136.919 193347 164309 140080 127651 132722 157116 199744 255638 317274 
3141.258 376234 423626 452216 458419 442034 407574 362670 317208 280603 
3145.598 259517 257362 273276 302287 337866 373017 402433 421968 430392 
3149.938 426744 411222 383861 345161 296485 240951 182971 128247 82080 48709 
3154.759 29954 25381 32605 48444 69520 92818 115653 134777 146841 148598 
3159.581 137892 114990 83737 51029 25050 13684 21371 48013 88576 135340 
3164.403 180783 219369 249239 272314 292141 311505 331002 347881 357696 
3168.742 356337 342111 316744 286040 257262 237039 229348 234088 247648 
3173.082 264689 280039 290948 297280 301292 306299 314721 326924 340453 
3177.422 351362 355076 348146 330140 303448 272613 243073 219270 204319 
3181.761 198352 199711 204916 210485 212739 209258 197954 177966 148863 
3186.101 112305 71012 29556 -6096 -30084 -38201 -28925 -4970 28197 62495 
3190.923 90962 108162 112935 106704 93746 78799 65610 56397 51824 51990 
3195.744 56397 64450 75154 86057 93514 92851 79628 51659 9874 -41316 -95051 
3201.048 -144042 -181834 -205448 -214489 -211608 -199752 -182397 -161697 
3204.906 -139140 -116251 -95084 -78056 -67919 -66263 -73286 -86802 -103266 
3209.245 -118371 -128739 -132615 -130230 -123473 -115224 -108864 -107307 
3213.103 -113171 -127712 -150435 -178886 -208760 -234558 -251182 -254858 
3216.960 -245586 -227273 -206409 -190478 -185775 -194552 -214324 -238665 
3220.818 -259660 -270720 -268832 -255255 -235552 -216145 -203428 -200878 
3224.675 -209157 -226080 -248798 -274197 -301249 -330088 -361772 -397227 
3228.532 -436156 -476669 -515690 -548915 -573138 -586176 -587632 -579161 
3232.390 -563939 -545606 -527273 -510792 -496627 -483553 -469487 -452772 
3236.247 -432945 -411396 -390706 -374882 -366804 -368393 -378954 -395705 
3240.105 -413779 -428675 -436884 -437877 -433640 -428576 -428145 -437083 
3243.962 -457472 -487823 -523566 -557586 -582205 -592893 -588029 -570061 
3247.820 -544911 -519959 -501790 -494608 -498778 -512711 -532038 -552688 
3251.677 -571583 -587102 -598220 -604540 -603911 -593687 -571020 -534322 
3255.534 -484149 -424934 -364321 -310818 -273203 -257540 -265719 -295984 
3259.392 -342404 -397128 -451382 -497454 -529291 -544051 -541668 -525850 
3263.249 -503279 -481303 -467667 -468064 -485043 -516385 -556824 -599146 
3267.107 -635708 -660686 -671736 -669057 -655823 -636072 -614301 -593885 
3270.964 -576977 -564502 -556924 -553251 -552688 -553979 -555567 -556295 
3274.822 -555104 -550504 -541569 -527339 -506754 -479714 -447608 -413448 
3278.679 -381635 -358329 -348430 -354455 -375710 -407456 -442180 -471804 
3282.536 -490206 -494873 -487459 -473161 -458134 -448370 -446682 -453699 
3286.394 -467567 -485705 -505397 -525254 -544150 -561821 -577804 -591437 
3290.251 -602224 -609702 -613804 -614599 -611554 -603746 -589782 -568506 
3294.109 -540477 -508607 -478059 -455751 -447973 -458829 -488154 -532204 
3297.966 -583595 -633954 -676302 -705843 -720795 -721788 -710971 -690295 
3301.823 -661712 -626973 -587433 -544977 -501392 -458399 -417917 -381139 
3305.681 -349258 -324128 -307639 -301613 -307639 -324890 -350549 -379318 
3309.538 -405040 -422650 -429900 -427880 -421624 -417751 -421856 -437546 
3313.396 -464721 -499307 -535347 -566586 -588657 -599709 -602091 -599775 
3317.253 -598286 -602224 -614135 -633789 -658404 -682124 -699856 -707100 
3321.111 -702238 -686921 -665881 -645633 -632134 -628892 -636601 -652085 
3324.968 -670148 -685168 -693206 -691949 -681661 -663168 -638090 -607286 
3328.825 -571384 -532501 -493681 -460153 -438142 -432713 -446053 -475577 
3332.683 -514564 -552589 -579525 -588029 -575587 -545176 -504636 -463463 
3336.540 -430628 -411925 -409012 -419969 -439995 -463430 -485308 -501624 
3340.398 -511453 -515292 -516285 -518635 -526909 -544647 -572774 -609073 
3344.255 -647949 -682422 -705082 -710872 -698367 -670049 -632201 -592595 
3348.113 -558876 -536175 -527074 -530847 -544713 -564932 -587632 -609966 
3351.970 -629355 -645170 -656485 -663664 -667402 -668428 -667502 -665384 
3355.827 -662473 -658768 -654632 -650960 -649107 -650861 -658470 -672828 
3359.685 -693504 -717951 -741866 -759926 -767203 -760786 -740444 -708126 
3363.542 -668163 -626046 -586639 -552986 -526875 -507416 -492887 -480740 
3367.400 -469851 -459955 -452938 -451580 -459061 -477629 -507912 -547195 
3371.257 -591602 -635344 -672762 -699922 -715370 -720266 -718414 -714643 
3375.115 -713353 -717521 -728867 -746530 -769055 -793861 -818731 -841153 
3378.972 -858978 -869890 -872040 -864136 -845849 -818037 -783377 -745141 
3382.829 -707762 -674945 -650033 -634980 -630348 -635311 -647552 -663929 
3386.687 -680305 -692578 -696647 -689931 -672001 -644541 -611654 -579293 
3390.544 -553184 -538491 -538491 -553383 -581278 -618040 -658867 -698632 
3394.402 -732836 -756982 -767501 -762671 -742594 -710706 -673192 -638950 
3398.259 -616749 -612646 -628561 -661613 -703825 -745769 -778614 -797135 
3402.116 -800376 -791711 -776563 -759827 -744413 -729991 -714444 -695191 
3405.974 -671637 -645104 -619330 -598551 -584885 -579161 -578532 -580286 
3409.831 -581179 -580451 -579822 -582668 -592132 -609867 -634880 -663763 
3413.689 -691784 -714378 -728040 -731711 -725559 -710805 -689534 -664127 
3417.546 -637627 -614863 -600669 -599841 -615095 -645071 -684076 -722383 
3421.404 -750202 -759000 -745273 -711401 -664392 -613076 -566686 -531840 
3425.261 -511884 -507118 -516054 -536539 -566586 -604275 -647453 -693074 
3429.118 -737268 -775273 -801832 -813407 -807355 -783806 -744512 -693868 
3432.976 -637825 -583396 -538855 -510990 -504934 -522176 -559902 -611720 
3436.833 -668527 -721821 -765450 -797267 -819195 -836094 -852761 -872602 
3440.691 -895914 -920349 -942170 -958569 -967727 -970206 -967330 -960222 
3444.548 -948617 -931458 -907288 -876074 -840988 -807619 -782517 -771734 
3448.406 -777754 -799516 -832919 -872767 -913736 -952750 -987629 -1017381 
3452.263 -1041842 -1060385 -1071854 -1075721 -1071821 -1061046 -1044850 
3455.638 -1025116 -1002868 -977909 -948816 -914662 -875876 -835168 -797267 
3459.496 -768658 -755725 -761679 -786519 -826206 -873462 -919621 -957280 
3463.353 -981975 -991794 -988554 -976157 -959065 -942170 -930003 -926565 
3467.210 -934831 -956784 -992819 -1040751 -1096444 -1153354 -1203515 
3470.586 -1239265 -1254992 -1248747 -1223472 -1185870 -1145489 -1112077 
3473.961 -1092776 -1090132 -1101501 -1120306 -1137656 -1145819 -1140267 
3477.336 -1120538 -1089570 -1052915 -1016852 -986670 -966537 -958338 -962239 
3481.194 -976256 -997116 -1020091 -1039263 -1049609 -1047362 -1031628 
3484.569 -1004918 -973215 -944220 -925738 -924118 -941542 -975826 -1020785 
3488.426 -1068516 -1110887 -1141622 -1157517 -1157022 -1140168 -1108673 
3491.802 -1064616 -1011728 -954932 -900774 -855869 -825511 -813308 -819591 
3495.659 -841550 -874586 -913736 -954403 -992984 -1027760 -1057146 -1079952 
3499.516 -1095255 -1102724 -1104443 -1103550 -1104971 -1113432 -1130683 
3502.892 -1154676 -1179525 -1196543 -1198691 -1183226 -1152164 -1112176 
3506.267 -1072218 -1041842 -1027595 -1032851 -1056451 -1094065 -1138483 
3509.642 -1182268 -1219276 -1245807 -1260509 -1263714 -1257007 -1242140 
3513.017 -1221556 -1197865 -1173379 -1149950 -1128403 -1109136 -1091421 
3516.393 -1075126 -1060253 -1047163 -1037148 -1030801 -1028322 -1029446 
3519.768 -1033280 -1039726 -1050006 -1065773 -1089306 -1121628 -1160987 
3523.143 -1202193 -1238109 -1260113 -1262690 -1243858 -1206423 -1156956 
3526.518 -1103716 -1055592 -1018703 -996455 -988554 -991959 -1002439 
3529.894 -1015298 -1026669 -1032718 -1030537 -1018405 -996092 -966074 
3533.269 -933310 -904742 -887647 -887912 -908313 -946667 -996257 -1047957 
3537.126 -1094329 -1131543 -1160260 -1184746 -1210189 -1239860 -1273790 
3540.501 -1308015 -1336490 -1352774 -1352444 -1334178 -1300615 -1256974 
3543.877 -1209198 -1163466 -1123347 -1090594 -1065409 -1047494 -1036685 
3547.252 -1033578 -1038404 -1050832 -1069541 -1092809 -1119050 -1146877 
3550.627 -1175957 -1206125 -1237250 -1268174 -1296288 -1318553 -1330841 
3554.002 -1329784 -1314193 -1284164 -1242404 -1193602 -1144101 -1100774 
3557.378 -1069574 -1054336 -1056518 -1073507 -1098956 -1125858 -1145819 
3560.753 -1153023 -1145852 -1126652 -1100972 -1075721 -1057278 -1049543 
3564.128 -1052584 -1063194 -1075622 -1082761 -1079853 -1066368 -1049147 
3567.503 -1038701 -1043395 -1066368 -1104740 -1151470 -1198063 -1236259 
3570.879 -1259452 -1262756 -1244353 -1206456 -1154742 -1097006 -1043594 
3574.254 -1003629 -983860 -986207 -1008422 -1043924 -1083984 -1119777 
3577.629 -1145753 -1159798 -1164127 -1164391 -1168257 -1181442 -1207447 
3581.004 -1245080 -1289747 -1334013 -1370115 -1392047 -1395812 -1380586 
3584.380 -1347754 -1300582 -1243395 -1181838 -1123611 -1076448 -1047031 
3587.755 -1036024 -1038867 -1045973 -1048254 -1040288 -1020223 -990339 
3591.130 -955428 -922531 -897732 -885961 -888176 -901204 -918034 -931061 
3594.988 -935293 -929871 -917737 -903320 -890028 -878653 -867642 -854910 
3598.845 -839798 -824089 -812845 -811753 -824883 -852066 -888738 -927391 
3602.702 -960850 -985645 -1001811 -1012422 -1021909 -1033908 -1048882 
3606.078 -1063789 -1072846 -1070664 -1054501 -1027496 -996951 -972025 
3609.453 -957775 -954304 -956916 -959428 -956420 -945510 -927689 -907454 
3613.310 -889466 -876504 -867873 -860168 -849619 -834076 -813572 -791083 
3617.168 -771172 -758504 -756056 -763135 -776299 -790454 -802460 -811919 
3621.025 -820947 -832820 -849421 -870915 -896013 -921407 -942666 -955593 
3624.883 -956354 -941939 -911488 -865294 -805999 -739253 -675706 -630811 
3628.740 -618701 -641928 -690362 -748283 -804676 -855770 -901700 -944187 
3632.597 -984323 -1021744 -1054799 -1081010 -1098824 -1107219 -1107450 
3635.973 -1100840 -1089140 -1074267 -1058369 -1043726 -1032619 -1027066 
3639.348 -1028223 -1035859 -1048056 -1062005 -1073804 -1079952 -1077737 
3642.723 -1066368 -1046304 -1019959 -990339 -960949 -935855 -919489 -915819 
3646.581 -926664 -949378 -974438 -987298 -975364 -936120 -882886 -838144 
3650.438 -822336 -842278 -889301 -947229 -999563 -1035330 -1048089 -1037313 
3654.295 -1007563 -969347 -936880 -924713 -940749 -980951 -1032024 -1078729 
3658.153 -1111317 -1126123 -1125297 -1114159 -1099683 -1087554 -1081770 
3661.528 -1083885 -1092941 -1107120 -1124173 -1141457 -1157517 -1170636 
3664.903 -1179922 -1184779 -1185044 -1181012 -1172950 -1161186 -1145489 
3668.279 -1125098 -1100675 -1074333 -1051659 -1039329 -1042007 -1059658 
3671.654 -1088380 -1121992 -1153453 -1174602 -1174503 -1140631 -1063227 
3675.029 -947890 -820848 -719406 -665881 -659396 -686987 -734060 -788238 
3678.886 -838938 -878157 -901237 -907222 -900245 -886788 -874685 -869527 
3682.744 -874222 -887284 -904643 -919886 -927590 -925738 -916447 -905338 
3686.601 -901204 -912347 -944121 -993877 -1050436 -1099419 -1130452 -1143671 
3690.459 -1147769 -1153288 -1166473 -1186035 -1204870 -1214022 -1206423 
3693.834 -1179261 -1134914 -1080382 -1026008 -981248 -952949 -942633 -946766 
3697.691 -959098 -973810 -987761 -1000753 -1014670 -1031429 -1050799 
3701.067 -1069574 -1081571 -1081142 -1066599 -1040519 -1009116 -978537 
3704.442 -953676 -936583 -926598 -921275 -917671 -913471 -907950 -902031 
3708.299 -898493 -901403 -914067 -939228 -977182 -1025876 -1080679 -1135211 
3712.157 -1183953 -1222117 -1247822 -1260575 -1261566 -1252712 -1236919 
3715.532 -1217095 -1196873 -1179558 -1168720 -1166109 -1171826 -1183557 
3718.907 -1197633 -1209000 -1213593 -1208603 -1193569 -1169612 -1139871 
3722.282 -1107549 -1074895 -1042932 -1011529 -980488 -950733 -925176 -907321 
3726.140 -901039 -907024 -922829 -943658 -964321 -980951 -991761 -996720 
3729.997 -996488 -991529 -980951 -962140 -932119 -888738 -833349 -771271 
3733.855 -712526 -669189 -652316 -665881 -704057 -753344 -800641 -838971 
3737.712 -869295 -895914 -924184 -956718 -994373 -1035098 -1076052 -1114424 
3741.570 -1148892 -1179426 -1206456 -1229353 -1244882 -1248351 -1236556 
3744.945 -1212965 -1184581 -1157980 -1135310 -1114787 -1091289 -1058468 
3748.320 -1010339 -944485 -865129 -785328 -725393 -703263 -724732 -781921 
3752.177 -856961 -931359 -992951 -1038173 -1069541 -1092875 -1114622 
3755.553 -1140532 -1174371 -1217690 -1268306 -1321394 -1369488 -1404564 
3758.928 -1420681 -1415529 -1391716 -1356012 -1316373 -1279638 -1248946 
3762.303 -1224761 -1205332 -1188612 -1173280 -1159798 -1150710 -1148859 
3765.678 -1156691 -1173677 -1196345 -1220300 -1240818 -1254496 -1259683 
3769.054 -1257437 -1250565 -1242701 -1237547 -1235895 -1237646 -1241049 
3772.429 -1245543 -1250003 -1254529 -1258824 -1262425 -1264342 -1263615 
3775.804 -1259188 -1250300 -1236259 -1216996 -1192313 -1163301 -1131774 
3779.179 -1100939 -1075457 -1059525 -1055030 -1061641 -1076647 -1095982 
3782.555 -1114622 -1128040 -1132237 -1126123 -1111614 -1093999 -1079588 
3785.930 -1074267 -1080778 -1099055 -1126387 -1157980 -1188282 -1212304 
3789.305 -1224893 -1223406 -1206621 -1176056 -1134550 -1087389 -1040354 
3792.680 -998472 -966504 -947857 -944485 -958271 -989182 -1035859 -1093239 
3796.538 -1153486 -1208108 -1250399 -1276830 -1287269 -1283602 -1268537 
3799.913 -1245444 -1218912 -1192908 -1170636 -1152065 -1134120 -1113168 
3803.288 -1086794 -1054435 -1017116 -976884 -937442 -904974 -885961 -886259 
3807.146 -907652 -945774 -993348 -1043825 -1092412 -1136004 -1172454 
3810.521 -1199087 -1212866 -1211742 -1194957 -1164226 -1122620 -1075688 
3813.896 -1030173 -993910 -974702 -976818 -997645 -1026140 -1049014 -1055394 
3817.754 -1040090 -1001910 -941840 -862913 -771866 -683877 -621481 -605632 
3821.611 -643053 -721457 -820583 -922101 -1015033 -1092577 -1150082 -1184218 
3825.469 -1192743 -1175858 -1137194 -1084183 -1025678 -969016 -920150 
3828.844 -882324 -858515 -851802 -864500 -897270 -946601 -1005215 -1062302 
3832.701 -1107549 -1134484 -1141259 -1130518 -1107648 -1080216 -1054865 
3836.076 -1036949 -1028719 -1030371 -1038999 -1051460 -1065078 -1078927 
3839.452 -1092941 -1107913 -1123909 -1140168 -1155733 -1168885 -1178600 
3842.827 -1184416 -1186993 -1187952 -1189373 -1193106 -1199715 -1208636 
3846.202 -1218615 -1227239 -1232657 -1233318 -1228560 -1218516 -1203878 
3849.577 -1185209 -1162474 -1135013 -1101766 -1063194 -1023000 -991430 
3852.953 -982438 -1003926 -1048981 -1100477 -1143539 -1170967 -1183458 
3856.328 -1184119 -1177675 -1167695 -1156559 -1144662 -1131179 -1114258 
3859.703 -1093073 -1068020 -1041478 -1017017 -998108 -986934 -983133 -983232 
3863.561 -983364 -980851 -975231 -968719 -964983 -965875 -972157 -982604 
3867.418 -995430 -1008686 -1020091 -1026834 -1026107 -1016190 -997910 
3870.793 -975264 -953312 -937211 -930962 -937575 -957610 -987761 -1020455 
3874.651 -1046800 -1060947 -1062137 -1054336 -1043858 -1036520 -1035462 
3878.026 -1041379 -1051295 -1060087 -1061476 -1052584 -1035594 -1018405 
3881.401 -1008653 -1010670 -1024091 -1044321 -1065244 -1080282 -1084811 
3884.776 -1076812 -1059261 -1038602 -1022802 -1016389 -1019860 -1030966 
3888.152 -1047362 -1066698 -1087256 -1108309 -1128403 -1146877 -1163003 
3891.527 -1176849 -1188976 -1199979 -1210189 -1218549 -1224067 -1224628 
3894.902 -1218978 -1206456 -1188051 -1165944 -1144762 -1129692 -1126090 
3898.277 -1137326 -1163102 -1197798 -1231005 -1251126 -1248913 -1220862 
3901.653 -1170075 -1106359 -1043494 -995430 -973611 -981612 -1014372 
3905.028 -1060848 -1109466 -1152197 -1185870 -1210751 -1228626 -1240818 
3908.403 -1246996 -1245642 -1234805 -1213923 -1184680 -1151635 -1121397 
3911.778 -1100675 -1093800 -1101303 -1119844 -1144266 -1168125 -1186399 
3915.154 -1196146 -1197072 -1191653 -1183392 -1176221 -1172718 -1173677 
3918.529 -1178732 -1186531 -1194792 -1200805 -1201830 -1195122 -1179558 
3921.904 -1155964 -1127511 -1099485 -1078531 -1070565 -1078101 -1098725 
3925.279 -1125264 -1149355 -1164094 -1166803 -1159071 -1145290 -1132005 
3928.655 -1124999 -1128007 -1141325 -1161846 -1183689 -1200111 -1205663 
3932.030 -1197964 -1178865 -1152825 -1126585 -1105897 -1095288 -1096841 
3935.405 -1111052 -1136500 -1170174 -1208108 -1244948 -1275277 -1294438 
3938.780 -1298931 -1287368 -1260773 -1222646 -1177906 -1133459 -1096444 
3942.156 -1072317 -1062963 -1065905 -1075523 -1084447 -1087752 -1083951 
3945.531 -1074399 -1063492 -1056584 -1057741 -1069276 -1089636 -1114919 
3948.906 -1140432 -1161846 -1176849 -1184845 -1186134 -1180715 -1168158 
3952.281 -1148397 -1122091 -1092115 -1062864 -1039561 -1026471 -1025281 
3955.656 -1033677 -1046403 -1056584 -1059261 -1052386 -1038173 -1022273 
3959.032 -1011959 -1012819 -1027661 -1054700 -1089372 -1123644 -1150446 
3962.407 -1163466 -1159500 -1138152 -1102526 -1057245 -1008422 -963131 
3965.782 -927854 -907487 -904346 -916910 -941377 -971562 -1000852 -1024686 
3969.640 -1040817 -1049345 -1052551 -1052650 -1051857 -1050832 -1050370 
3973.015 -1050799 -1053576 -1060021 -1071656 -1088281 -1108045 -1127775 
3976.390 -1143374 -1151470 -1151007 -1143010 -1130419 -1117034 -1106624 
3979.765 -1101501 -1103154 -1112044 -1128106 -1150875 -1179625 -1212833 
3983.141 -1247525 -1280133 -1306529 -1323409 -1329223 -1324730 -1312871 
3986.516 -1297378 -1282347 -1270784 -1263879 -1261302 -1261765 -1263417 
3989.891 -1264408 -1262624 -1256148 -1243131 -1222051 -1192479 -1155931 
3993.266 -1115118 -1074598 -1039230 -1012819 -997182 -991298 -991860 -993777 
3997.124 -992422 -984356 -969115 -948055 -925209 -905205 -891979 -888176 
##END=
