##TITLE=ac_1 01 12:44:26 2026 (GMT+02:00)
##JCAMP-DX=5.01  $$ Nicolet v. 970
##DATATYPE=INFRARED SPECTRUM
##ORIGIN=Vojna akademija
##OWNER=Nicolet
##LONGDATE=2026/09/01
##TIME=12:44:55
##SPECTROMETER/DATA SYSTEM=Nicolet iS20
##DATA PROCESSING=
Ratio against background
%Transmittance->Absorbance
Truncated
ElementMultiply or ElementDivide
##COMMENTS=
Number of sample scans: 8
Collection length: 11,90 sec
Sample gain: 8,0
Background collected on: Tue Sep 01 12:38:26 2026 (GMT+02:00);
Number of background scans: 8
Background gain: 8,0
Sample spacing:  1,000
Number of scan points: 12415
Resolution points: 8286
Number of FFT points: 65536
Apodization: N-B strong;
Phase correction: Mertz;
Laser frequency: 15798,00 cm-1
Number of rejected sample scans: 0
Number of rejected background scans: 0
Bench serial number: BER2010005;
##RESOLUTION= 4,000
##XUNITS=1/CM
##YUNITS=ABSORBANCE
##FIRSTX=400.156891
##LASTX=4000.123047
##FIRSTY=0.007772
##MAXX=4000.123047
##MINX=400.156891
##MAXY=0.179823
##MINY=-0.004697
##XFACTOR=1.000000
##YFACTOR=1.000000E-009
##NPOINTS=7468
##DELTAX=0.482117
##ZPD=6100
##XYDATA=(X++(Y..Y))
400.157 7772403 8178495 8633466 8964927 8922207 8310802 7082854 5360704 
404.014 3435036 1691535 550672 298607 996655 2442772 4274918 6077728 7503976 
408.353 8365992 8635730 8445582 8021116 7612002 7382767 7354053 7397292 
412.210 7283761 6761912 5649090 3931902 1780890 -488154 -2536642 -4028317 
416.067 -4697462 -4359656 -2939259 -540047 2465464 5379859 7480413 8444062 
419.924 8510048 8149054 7733916 7397798 7091375 6684515 6057702 5172554 
423.781 4112993 3075030 2284893 1919216 2016207 2477227 3105164 3688828 
427.638 4041015 4059310 3750887 3219711 2631976 2152610 1906969 1929666 
431.494 2161035 2464898 2692384 2725925 2517317 2096505 1558170 1030962 
435.351 631430 441602 479813 709249 1065903 1492633 1953763 2427178 2893738 
439.690 3318295 3647694 3824922 3805769 3581139 3189569 2708921 2225707 
443.547 1801518 1457225 1174697 923963 691494 495271 387377 434471 682334 
447.886 1144199 1792368 2578609 3452269 4376185 5317667 6231009 7050423 
451.743 7685315 8050008 8108643 7901887 7548242 7193268 6974994 6969304 
455.600 7165881 7455333 7651186 7548916 7008228 6054241 4876844 3735881 
459.457 2815226 2185044 1799621 1555210 1330046 1031726 622438 124137 
463.314 -397956 -863938 -1201466 -1360603 -1305075 -1006273 -446814 368407 
467.171 1393963 2544746 3694676 4710608 5483666 5939247 6052628 5849838 
471.028 5401195 4801557 4161263 3582543 3130294 2833869 2689750 2678515 
474.885 2782678 2992382 3300666 3695912 4154103 4631834 5070732 5414615 
478.742 5615020 5642410 5488229 5158002 4670582 4052721 3341968 2581842 
482.599 1820317 1107425 488670 -265 -341808 -545077 -646196 -699558 -753079 
486.938 -834573 -934202 -1009513 -992720 -819393 -451845 104318 799265 
490.795 1548426 2254116 2836737 3242677 3452102 3475014 3336091 3063718 
494.652 2687550 2247722 1799422 1418363 1193204 1190612 1436247 1894622 
498.509 2480360 3075564 3565104 3870385 3962697 3876904 3694810 3521777 
502.366 3435303 3457579 3552209 3651136 3682379 3602287 3411191 3150218 
506.223 2888768 2696585 2623209 2672414 2803587 2941506 3011666 2961155 
510.079 2775375 2480059 2134762 1812198 1569509 1437178 1409088 1455430 
513.936 1537719 1629936 1726230 1837952 1983186 2168161 2378367 2581242 
517.793 2742197 2846242 2912684 2992949 3147581 3413896 3788221 4214423 
521.650 4602599 4848798 4876944 4656382 4218103 3643350 3055576 2583542 
525.507 2321134 2310674 2527082 2896573 3322736 3725053 4053156 4286295 
529.364 4428568 4494482 4499973 4455381 4361391 4211345 3997775 3719439 
533.221 3390887 3046667 2742431 2537713 2479693 2581642 2812158 3097855 
537.078 3342869 3466965 3424082 3227355 2941973 2672081 2518983 2551778 
540.935 2789515 3197513 3701460 4210575 4651827 4978788 5177784 5258905 
544.792 5242237 5146199 4983748 4766884 4510218 4236639 3978413 3768267 
548.649 3636066 3601385 3666607 3818103 4028340 4263741 4489327 4677315 
552.506 4808292 4871482 4864949 4791205 4656014 4463750 4215226 3908431 
556.363 3542721 3124820 2674047 2223009 1814494 1490338 1280794 1199151 
560.220 1239024 1380268 1594650 1856519 2145618 2447270 2750300 3040728 
564.077 3300366 3509251 3649432 3714125 3709781 3655279 3572387 3475515 
567.934 3363605 3219310 3014802 2726192 2349250 1907235 1451274 1045277 
571.790 756976 631961 685553 897334 1219751 1590992 1950601 2257647 2495689 
576.130 2674014 2815727 2946009 3078100 3206359 3311217 3368313 3360834 
579.986 3287646 3166539 3028282 2904012 2811191 2748199 2698885 2645644 
583.843 2580409 2516451 2485325 2527482 2671514 2920090 3241476 3579636 
587.700 3867744 4047704 4092054 4007539 3832176 3617589 3416801 3265678 
591.557 3176719 3140706 3137903 3147314 3155158 3157527 3156359 3154023 
595.414 3150418 3140773 3117411 3071359 2994917 2882197 2731560 2548479 
599.271 2346785 2151844 1997699 1914457 1920747 2010714 2153143 2293620 
603.128 2371538 2340322 2181847 1917751 1601567 1303758 1080917 958199 
606.985 920543 923366 910217 842719 720766 585010 502105 536141 722624 
611.324 1048499 1452670 1841512 2129102 2261011 2233434 2091744 1915522 
615.181 1788542 1767748 1872592 2078360 2334692 2582009 2778277 2907114 
619.038 2975667 3003425 3009564 3002291 2977402 2923692 2832702 2707721 
622.895 2567343 2439173 2350949 2318836 2337790 2380499 2403921 2366474 
626.752 2241793 2032518 1770044 1511052 1319079 1243343 1308444 1501244 
630.609 1775433 2061348 2293420 2423713 2438440 2357912 2228471 2106594 
634.466 2035981 2037612 2103464 2203960 2298649 2353648 2349583 2284227 
638.323 2167495 2017039 1848899 1676068 1510055 1364280 1254807 1201875 
642.180 1221944 1321139 1488909 1698155 1909332 2079459 2177851 2194402 
646.036 2143853 2061048 1993738 1988212 2075797 2268072 2551578 2894705 
649.893 3250990 3573923 3822615 3966075 3987876 3887201 3679037 3391154 
653.750 3064385 2746298 2482492 2316504 2279230 2384664 2627209 2982373 
657.607 3407851 3848790 4251461 4565563 4757370 4817873 4762428 4629556 
661.464 4467901 4330668 4258354 4270501 4362429 4508109 4669377 4804472 
665.321 4880697 4873057 4769966 4577317 4335555 4120853 4013793 4042152 
669.178 4155776 4270434 4317516 4266351 4113427 3876670 3590093 3300600 
673.035 3058412 2902011 2852079 2904679 3038892 3220379 3413061 3582910 
676.892 3701961 3753160 3731470 3645188 3513159 3364373 3230960 3137202 
680.749 3095086 3098189 3124386 3144177 3133497 3082805 3002291 2917388 
684.606 2860217 2854514 2904846 2991714 3076765 3117445 3075664 2936269 
688.463 2712755 2445004 2184944 1983852 1878615 1881876 1983186 2154508 
692.320 2363409 2582576 2798752 3014235 3241442 3493518 3774182 4073691 
696.177 4370027 4635585 4846285 4990988 5073749 5111900 5126853 5139259 
700.034 5159946 5189823 5224798 5261621 5305022 5369862 5476183 5643853 
703.890 5883591 6193297 6557311 6953951 7363692 7773280 8180250 8588887 
707.747 9005011 9430001 9857032 10273594 10667837 11035249 11385623 11742579 
711.604 12140715 12616025 13195270 13891932 14703731 15616612 16609451 
714.979 17663056 18763194 19899978 21066422 22251424 23437672 24601678 
718.354 25713438 26742378 27661770 28445336 29070328 29516628 29767540 
721.729 29815766 29666988 29341824 28870984 28291542 27640230 26946106 
725.104 26233516 25518722 24812364 24120674 23444980 22784166 22136800 
728.478 21503838 20891578 20311986 19777064 19295688 18867204 18479730 
731.853 18111910 17740848 17348788 16929108 16488118 16040524 15605003 
735.228 15196818 14826864 14503405 14233219 14025375 13887655 13822112 
738.603 13819684 13856935 13900587 13911946 13860835 13734863 13542298 
741.978 13308375 13065939 12842921 12651877 12489255 12338555 12181195 
745.352 12002807 11801204 11585196 11371372 11175433 11008502 10873774 
748.727 10768399 10685157 10617413 10562988 10522182 10497945 10491156 
752.102 10497605 10505142 10495026 10443603 10330494 10143639 9885980 
755.477 9574782 9241840 8925285 8656315 8455717 8327689 8261866 8240726 
759.334 8248931 8277805 8326608 8398421 8494268 8607914 8726254 8831913 
763.191 8910641 8957383 8977983 8985459 8992935 9006466 9022094 9029402 
767.048 9017325 8984309 8941453 8911317 8916187 8970812 9070880 9193712 
770.905 9301617 9355715 9327954 9209077 9009206 8754856 8479300 8212530 
774.762 7977646 7788764 7651051 7563650 7519686 7509842 7520327 7535599 
778.619 7540724 7522923 7474581 7393417 7281403 7141358 6976610 6789341 
782.475 6581800 6358286 6126183 5893835 5669567 5458064 5259274 5069928 
786.332 4887533 4713388 4556556 4431815 4356605 4344524 4399212 4510552 
790.189 4655813 4805611 4929019 5004696 5026115 5001914 4951507 4900535 
794.046 4870678 4872555 4902713 4943296 4970811 4961292 4902110 4796264 
797.903 4666061 4544067 4465591 4455080 4516244 4629523 4756063 4853187 
801.760 4884149 4831878 4705516 4536333 4366010 4232791 4162768 4160025 
805.617 4211278 4290611 4371767 4434995 4473023 4490699 4501848 4523710 
809.474 4569615 4647875 4758576 4893498 5038450 5177751 5294959 5377577 
813.331 5419916 5423740 5398511 5358658 5319311 5292779 5284797 5294154 
817.188 5314044 5334975 5347487 5346011 5329239 5300158 5262158 5219265 
821.045 5172353 5120383 5060374 4990552 4911325 4827991 4748995 4685320 
824.902 4646100 4635920 4651827 4683980 4719551 4746416 4757973 4756700 
828.759 4752781 4760150 4789698 4843706 4912766 4977011 5011098 4994674 
832.616 4918731 4792009 4637795 4491603 4389740 4358145 4408518 4534190 
836.473 4712651 4910621 5095707 5241935 5336418 5381201 5391265 5389386 
840.329 5398209 5435617 5509269 5615456 5740874 5868646 5983555 6075174 
844.186 6141641 6186844 6217329 6236857 6244354 6232589 6191751 6113145 
848.043 5994372 5840200 5664129 5483129 5315688 5178254 5082767 5037110 
851.900 5043344 5098658 5193377 5311059 5432396 5534974 5600520 5620323 
855.757 5598406 5549371 5495141 5457326 5447025 5462023 5486249 5496518 
859.614 5469774 5393915 5273058 5127725 4989379 4889644 4854695 4894737 
863.471 5002451 5154213 5318941 5462828 5558600 5592532 5564239 5488296 
867.328 5388447 5293886 5229359 5210445 5238783 5303043 5381938 5449542 
871.185 5484504 5474304 5418104 5324912 5211049 5094366 4989982 4911828 
875.042 4870611 4875537 4934046 5049345 5216146 5416292 5620155 5789225 
878.899 5885237 5885203 5788486 5621364 5430249 5274131 5201660 5239386 
882.756 5382643 5598137 5833383 6033847 6161671 6201027 6162478 6073192 
886.613 5968841 5878990 5819178 5790971 5785363 5789796 5795235 5800373 
890.470 5810984 5836506 5884397 5956345 6045976 6140566 6222707 6276658 
894.327 6292760 6269228 6212421 6135862 6055115 5982479 5925374 5883289 
898.183 5850174 5816928 5777472 5731104 5684808 5649426 5635529 5647982 
902.040 5682390 5724692 5755412 5757225 5720528 5647412 5551251 5453131 
905.897 5374323 5329776 5325516 5357651 5415823 5486618 5558768 5623311 
909.754 5676213 5716567 5745944 5768205 5787647 5809775 5839361 5878956 
913.611 5927423 5980867 6032638 6076384 6109448 6133442 6154916 6183550 
917.468 6227950 6293063 6378225 6476418 6575812 6662913 6723616 6746701 
921.325 6724592 6655343 6542409 6396853 6236186 6081962 5958797 5887890 
925.182 5881610 5941598 6057568 6209800 6371903 6519268 6631556 6696931 
929.039 6714294 6692490 6648008 6600572 6571405 6578301 6631792 6735158 
932.896 6882983 7062816 7256941 7446603 7613148 7740122 7815582 7832991 
936.753 7793419 7705584 7587724 7464569 7362074 7304585 7305966 7365781 
940.610 7469053 7592681 7710340 7801717 7859138 7887446 7901178 7917308 
944.467 7950951 8010180 8097064 8209086 8343463 8497749 8668348 8849192 
948.324 9029165 9191817 9320405 9401524 9430339 9412901 9364822 9304799 
952.181 9248339 9203662 9170158 9140582 9105763 9059174 8998211 8924440 
956.037 8841347 8753605 8667706 8593077 8545055 8541710 8601053 8734469 
959.894 8939762 9199026 9479948 9745263 9959271 10098803 10157477 10145436 
963.751 10083745 9995277 9899979 9809278 9725812 9646394 9565366 9478222 
967.608 9383206 9283812 9187858 9107083 9053625 9037149 9059377 9112666 
971.465 9177569 9229486 9245495 9210566 9125456 9006195 8879493 8771422 
975.322 8699615 8667164 8662466 8665509 8657261 8627246 8576720 8515623 
979.179 8457711 8413150 8384165 8365789 8348259 8322758 8282905 8226104 
983.036 8150505 8053654 7930873 7778542 7597367 7396686 7194716 7017387 
986.893 6888503 6825893 6833466 6900993 7005501 7118589 7215030 7276686 
990.750 7298183 7285041 7251820 7216142 7194379 7198557 7232515 7291477 
994.607 7363456 7432177 7479739 7490964 7458300 7381655 7269542 7136744 
998.464 7001426 6880121 6786009 6726005 6699993 6700599 6714665 6726240 
1002.321 6719039 6681386 6609217 6508202 6392212 6279347 6187214 6125007 
1006.178 6091740 6075477 6058676 6023398 5958360 5863238 5748395 5630460 
1010.035 5527054 5451890 5410220 5399820 5412568 5438972 5471083 5504269 
1013.891 5537323 5571320 5607535 5644894 5679873 5706595 5717305 5704078 
1017.748 5661846 5588773 5488196 5368721 5242807 5124875 5027556 4959918 
1021.605 4926506 4926908 4957673 5013512 5087997 5172788 5258066 5331822 
1025.463 5380194 5391231 5356276 5274701 5154615 5014651 4879055 4773048 
1029.320 4719652 4732749 4815227 4957036 5137851 5329105 5499000 5622371 
1033.177 5682928 5679168 5623915 5542827 5465412 5416258 5408844 5439811 
1037.035 5490477 5532323 5537693 5487021 5375699 5214470 5026987 4842164 
1040.892 4684348 4570553 4505731 4482698 4485410 4495420 4494348 4470613 
1044.750 4421538 4354932 4287098 4237141 4223256 4254439 4328225 4428099 
1048.607 4529603 4606249 4635920 4609296 4533052 4427697 4321131 4243933 
1052.464 4219910 4259559 4360421 4506401 4672994 4830940 4955696 5030372 
1056.322 5048574 5015154 4942994 4849703 4751038 4659497 4581469 4518454 
1060.179 4470680 4438275 4423647 4429404 4456720 4502986 4562516 4628720 
1064.037 4697277 4769966 4852752 4953786 5076766 5214604 5348225 5449542 
1067.894 5491081 5453937 5338329 5163266 4963605 4774790 4623897 4520797 
1071.752 4456988 4412233 4365274 4305536 4236104 4173942 4141459 4157784 
1075.609 4230081 4350314 4496123 4640173 4756164 4826953 4850038 4835698 
1079.466 4804572 4778743 4778173 4812848 4880530 4967996 5056351 5126987 
1083.324 5167826 5177818 5165814 5145998 5130038 5121858 5113711 5090243 
1087.181 5034026 4935252 4796800 4636723 4479551 4350548 4264946 4223322 
1091.039 4212951 4214590 4211144 4193880 4166247 4140890 4134735 4161229 
1094.896 4225430 4322637 4439782 4556992 4652263 4705818 4700392 4625772 
1098.754 4480656 4274583 4027939 3768902 3529660 3336024 3204123 3136634 
1102.611 3124219 3149951 3197013 3254361 3320599 3403209 3513693 3663900 
1106.468 3858919 4093926 4354296 4618405 4862871 5065502 5212558 5298012 
1110.326 5324878 5303009 5247267 5172420 5089975 5007210 4926305 4846821 
1114.183 4768726 4694430 4628954 4578991 4549023 4539647 4546378 4560775 
1118.041 4573164 4576948 4570117 4555887 4540351 4528197 4520931 4515474 
1121.898 4505966 4486849 4457289 4422308 4392920 4382310 4402258 4458327 
1125.755 4548152 4659932 4776699 4879189 4950568 4981972 4973559 4936090 
1129.613 4886997 4848966 4842097 4878586 4960321 5077403 5211619 5340845 
1133.470 5447461 5523162 5571152 5604715 5642544 5701459 5789594 5904348 
1137.328 6032906 6158277 6263346 6338314 6382394 6403713 6414574 6427790 
1141.185 6453516 6495051 6551256 6617897 6690504 6766557 6846796 6934087 
1145.043 7032103 7142773 7264623 7391664 7515135 7624680 7711014 7769401 
1148.900 7800570 7810185 7807317 7801313 7798378 7799626 7801920 7800705 
1152.757 7793217 7781747 7774258 7783130 7821048 7894633 8002485 8132747 
1156.615 8267100 8383253 8463758 8499506 8492444 8453589 8399198 8346131 
1160.472 8305331 8280710 8268755 8261190 8248223 8221883 8178461 8118264 
1164.330 8044641 7962054 7875232 7787583 7702515 7624074 7556637 7504954 
1168.187 7472458 7459311 7461671 7471985 7481289 7480817 7464940 7431435 
1172.045 7380913 7314828 7234200 7139169 7030655 6911732 6790182 6677213 
1175.902 6585567 6524885 6497136 6494547 6502080 6501744 6477058 6420728 
1179.759 6335356 6232757 6127930 6036031 5966825 5923997 5907102 5913249 
1183.617 5939179 5981539 6035863 6095873 6151959 6195011 6216858 6214203 
1187.474 6189734 6151253 6108205 6067984 6033780 6003375 5971797 5934141 
1191.332 5888427 5836875 5785531 5741411 5710322 5695584 5696893 5711195 
1195.189 5734293 5760852 5785027 5801447 5804571 5790265 5756756 5705387 
1199.047 5641503 5572126 5505007 5446622 5400423 5366842 5344837 5331956 
1202.904 5325885 5324476 5326019 5328870 5332493 5338027 5349298 5371640 
1206.761 5412602 5477492 5567461 5678161 5800138 5920940 6028136 6113548 
1210.619 6173737 6209901 6226001 6226034 6212724 6187516 6152295 6110893 
1214.476 6070504 6041037 6032402 6051755 6101988 6180895 6282103 6396853 
1218.334 6516980 6635190 6746970 6848210 6937285 7013347 7076960 7130748 
1222.191 7179355 7227158 7278101 7333901 7393585 7454660 7515034 7574271 
1226.048 7633313 7694691 7759754 7827930 7895240 7956655 8007041 8044608 
1229.906 8070463 8087747 8099056 8103849 8096692 8068674 8010247 7915992 
1233.763 7786807 7630986 7462041 7295656 7144188 7015098 6909443 6823268 
1237.621 6749595 6680982 6612750 6543250 6474838 6413364 6367163 6344837 
1241.478 6352973 6393490 6462462 6550180 6641717 6722808 6781769 6814113 
1245.336 6822897 6816940 6807314 6801727 6802501 6805833 6804655 6791798 
1249.193 6764604 6726510 6685827 6652046 6631624 6624828 6625568 6622304 
1253.050 6603229 6560843 6493773 6408084 6314209 6225026 6150447 6096477 
1256.908 6064254 6051083 6052998 6066068 6087237 6114254 6144162 6173938 
1260.765 6199582 6218976 6231849 6241227 6251345 6266808 6290306 6320160 
1264.623 6352032 6379300 6396550 6400888 6393087 6377720 6361177 6349611 
1268.480 6347695 6358420 6383403 6423485 6479345 6550449 6634013 6724154 
1272.338 6812632 6889850 6948160 6983748 6997588 6995062 6983378 6969876 
1276.195 6958327 6950011 6944086 6940685 6942200 6954153 6982940 7032810 
1280.052 7102961 7186462 7270688 7342966 7393552 7419301 7424020 7417144 
1283.910 7408819 7406022 7410639 7419908 7428772 7433626 7433997 7434502 
1287.767 7442322 7464300 7504887 7564931 7642182 7733275 7835049 7945856 
1291.625 8065096 8191764 8323940 8457103 8585507 8703131 8804625 8886797 
1295.482 8948894 8992326 9020065 9036303 9046791 9057583 9075380 9105527 
1299.339 9150700 9209720 9277718 9346574 9407348 9452688 9478120 9482997 
1303.197 9469586 9441953 9404233 9360895 9316308 9275586 9244649 9229147 
1307.054 9232295 9252806 9283947 9314379 9330899 9322166 9283574 9217945 
1310.912 9135135 9048246 8970745 8910979 8870193 8843038 8820213 8793771 
1314.769 8759014 8716586 8670477 8625252 8582330 8539142 8489301 8426527 
1318.627 8347584 8255415 8159182 8071712 8004105 7962898 7947577 7952740 
1322.484 7970323 7993744 8020171 8050008 8085215 8126636 8171640 8214522 
1326.341 8248628 8270916 8283614 8296211 8322825 8376734 8466597 8592739 
1330.199 8746979 8915071 9082214 9237947 9377383 9502436 9619394 9735402 
1334.056 9855507 9982427 10115116 10252018 10390421 10528938 10666343 
1337.432 10802230 10935306 11065261 11191582 11315730 11440458 11568522 
1340.807 11701049 11836375 11969325 12094037 12204232 12296117 12370191 
1344.182 12431218 12487038 12546991 12618720 12706087 12809066 12924666 
1347.557 13048696 13177508 13308819 13441947 13576176 13711096 13844655 
1350.932 13974456 14098307 14214525 14322965 14424788 14522043 14617504 
1354.308 14714940 14819699 14938647 15080200 15253234 15465202 15719941 
1357.683 16016666 16351059 16717596 17113600 17545982 18035468 18618534 
1361.058 19340862 20247166 21356592 22642348 24026324 25400706 26665354 
1364.433 27748614 28617548 29261218 29678660 29875888 29868576 29692816 
1367.809 29406634 29094276 28845630 28734426 28813658 29108698 29632434 
1371.184 30401086 31443808 32803878 34522312 36607008 38992244 41518680 
1374.559 43969584 46126208 47841312 49052732 49744568 49912020 49539036 
1377.934 48606032 47122476 45152588 42821892 40279564 37674800 35122456 
1381.310 32693156 30433958 28373136 26526774 24896992 23465826 22196636 
1384.685 21039330 19945664 18880458 17833186 16821842 15882403 15047749 
1388.060 14330910 13720123 13193459 12731983 12325329 11970551 11665140 
1391.435 11401236 11162480 10925758 10666785 10369789 10035389 9684171 
1394.811 9348842 9059579 8829242 8651379 8508764 8385010 8269261 8157865 
1398.668 8052033 7954090 7865649 7787448 7720627 7667744 7631459 7612878 
1402.526 7610282 7617161 7624175 7622523 7607686 7582430 7554547 7530913 
1406.383 7514124 7501313 7487323 7469390 7450277 7437502 7440300 7464772 
1410.240 7510415 7568741 7628795 7681605 7725889 7767445 7814537 7872498 
1414.098 7939647 8008020 8066851 8107934 8130451 8142099 8156751 8188759 
1417.955 8247074 8329918 8427440 8529849 8636440 8754551 8894271 9061576 
1421.813 9258019 9481676 9730387 10002872 10298328 10614153 10943970 
1425.188 11278050 11607453 11928046 12245741 12576084 12945011 13382212 
1428.563 13911364 14541332 15260921 16042864 16856768 17680036 18500924 
1431.938 19314706 20119850 20913970 21697250 22479886 23285364 24155456 
1435.314 25141736 26282162 27559234 28884620 30137874 31236750 32173138 
1438.689 32994490 33766076 34551016 35394136 36318032 37322720 38391732 
1442.064 39500212 40623100 41744632 42857440 43960344 45057232 46154948 
1445.439 47266936 48412856 49616884 50897496 52254768 53666896 55095752 
1448.815 56511056 57911448 59325528 60802420 62388692 64107380 65940140 
1452.190 67828584 69697880 71473256 73115456 74622288 76016656 77328552 
1455.565 78573240 79732592 80747448 81559304 82161848 82596648 82916120 
1458.940 83136504 83249912 83245184 83126832 82914472 82634040 82302472 
1462.316 81918592 81453496 80853248 80049280 78985616 77646432 76049576 
1465.691 74221816 72172472 69882464 67336496 64545608 61563256 58457776 
1469.066 55302160 52140128 48948024 45652212 42152344 38401612 34505060 
1472.441 30759548 27525556 25003922 23155790 21788726 20688274 19712670 
1475.817 18796304 17934524 17147240 16448645 15829822 15265108 14724537 
1479.192 14188334 13652281 13128500 12635878 12191589 11801204 11457842 
1482.567 11147420 10857433 10582476 10322588 10079879 9853846 9638975 
1485.942 9426784 9209551 8984139 8753740 8525828 8306276 8095848 7890112 
1489.800 7685618 7487323 7307382 7158099 7043452 6958597 6891668 6828990 
1493.657 6757504 6668936 6561145 6439391 6313705 6196154 6092950 6001964 
1497.515 5915062 5825323 5731372 5636603 5545646 5460111 5379288 5300124 
1501.372 5220942 5143550 5071335 5009255 4960119 4921512 4885154 4835999 
1505.229 4755092 4630327 4477007 4353259 4326552 4405840 4537137 4660837 
1509.087 4746617 4786683 4788156 4765142 4735094 4713321 4711311 4733519 
1512.944 4778073 4838713 4906231 4971314 5021958 5045054 5028897 4969504 
1516.802 4875503 4766180 4661540 4571323 4493043 4415781 4326151 4213687 
1520.659 4079611 3940729 3823819 3743601 3692470 3646157 3580872 3482395 
1524.516 3348145 3187900 3021375 2873925 2763037 2692884 2652344 2624242 
1528.374 2593142 2550379 2494922 2428811 2355446 2277165 2197333 2122043 
1532.231 2063279 2038977 2063412 2134429 2227872 2312906 2366407 2380433 
1536.089 2358378 2309675 2246989 2185277 2142587 2135462 2172290 2238696 
1539.946 2297450 2306178 2249020 2141888 2013877 1890096 1788276 1723103 
1543.804 1704907 1736243 1808538 1901378 1989943 2053724 2083754 2079759 
1547.661 2049596 2004490 1958855 1924940 1908267 1905038 1904406 1896120 
1551.518 1875221 1844340 1811499 1787876 1781954 1796094 1823477 1850763 
1555.376 1862010 1844607 1790272 1694263 1557338 1395725 1262650 1238924 
1559.233 1354409 1537586 1700117 1803214 1847368 1845305 1809470 1751513 
1563.091 1683053 1617497 1567148 1542674 1548460 1581979 1635822 1701847 
1566.948 1773836 1846237 1912593 1964047 1988778 1978759 1936722 1877384 
1570.806 1817821 1769145 1733582 1706271 1679527 1645335 1597842 1536057 
1574.663 1465037 1396323 1346000 1324762 1329648 1345734 1357932 1359760 
1578.520 1353013 1343540 1338189 1342178 1357633 1384025 1418363 1457092 
1582.378 1496157 1532565 1562260 1580583 1582279 1563224 1522956 1465170 
1586.235 1398085 1331775 1275377 1235136 1212840 1205929 1209617 1218555 
1590.093 1229387 1240486 1252415 1265906 1281525 1299205 1318780 1340383 
1593.950 1365111 1393764 1426374 1461015 1493630 1519731 1535791 1540246 
1597.807 1534627 1522557 1508825 1497720 1493198 1497553 1511451 1534361 
1601.665 1564920 1600403 1637718 1673074 1702811 1724534 1737641 1742364 
1605.522 1740235 1732052 1718047 1698254 1672276 1641211 1607819 1575462 
1609.380 1547196 1524485 1506497 1490205 1472019 1449113 1419925 1384789 
1613.237 1345335 1303359 1259725 1214767 1167654 1117623 1065040 1011998 
1617.095 961918 917422 879505 847268 818784 792228 765075 735004 700023 
1621.434 659337 614540 571241 538463 524198 530568 551866 577678 596557 
1625.774 599477 581626 543672 492485 439214 396663 372387 366915 374476 
1630.113 386746 396795 400874 398785 393114 388007 387509 396231 418220 
1634.453 455666 505654 557241 590319 586968 542112 463129 363566 258655 
1638.793 163746 93481 58154 63323 104915 170939 242675 302983 339027 344797 
1643.614 321054 273839 211811 144687 84301 42513 28197 42910 78269 121022 
1648.436 160597 192153 215358 232165 245791 260213 279144 304807 333688 
1652.776 351760 343669 311969 276160 253383 249571 262368 286903 317208 
1657.115 347549 372851 389565 396596 394606 385685 371558 353485 333257 
1661.455 312898 295888 286670 287831 298109 312466 323575 325730 315185 
1665.795 290616 252123 201833 143030 80026 20411 -27036 -53673 -55230 -34955 
1670.616 -2385 30086 52089 57524 44203 14380 -26241 -67720 -98463 -108931 
1675.438 -98198 -74810 -51719 -38930 -38765 -49300 -65865 -83953 -100417 
1679.778 -114761 -129302 -147620 -171732 -200977 -229326 -245122 -229657 
1683.635 -165473 -55230 70084 174651 242642 276790 285908 276856 254875 
1687.975 224905 193744 170143 162619 176209 209192 254510 301093 339458 
1692.314 363732 373083 370530 362372 356403 358592 370895 388173 401604 
1696.654 406247 406148 412184 440541 508706 632492 813672 1026113 1218489 
1700.994 1349623 1415138 1435483 1432225 1419061 1402141 1383692 1365377 
1704.851 1351152 1347595 1360790 1393465 1442298 1499748 1557039 1605791 
1708.708 1639481 1653151 1645069 1615136 1566350 1502541 1428834 1349689 
1712.566 1268831 1189549 1114002 1042919 974238 904373 826585 734473 625756 
1716.905 507246 395833 313726 275331 278448 309748 352722 394673 427341 
1721.245 446246 451520 447473 442299 446412 469829 516999 585608 666107 
1725.585 746488 813605 857294 873163 861112 826419 776062 718210 658574 
1729.924 599377 539392 475402 405716 333224 268004 232033 256466 363301 
1734.264 541781 745160 925159 1056902 1139515 1181475 1192074 1179448 
1738.121 1149980 1110879 1070088 1034117 1006020 984400 963479 936980 899426 
1742.461 847334 779581 698231 607373 512189 418286 331168 255140 194175 
1746.800 149990 121917 105147 91790 72867 41850 -2584 -54667 -104558 -142552 
1751.622 -164611 -172892 -174117 -176502 -186637 -207932 -241612 -286250 
1755.480 -339226 -394281 -444861 -484513 -509766 -520720 -519727 -510692 
1759.337 -496362 -479780 -463430 -450025 -442015 -440161 -443372 -448337 
1763.194 -451580 -450554 -444298 -433110 -418844 -404146 -392196 -386833 
1767.052 -390805 -404874 -427218 -453997 -480012 -500664 -512182 -511685 
1770.909 -497189 -469222 -431290 -391169 -356707 -332604 -318731 -311878 
1774.767 -306779 -299461 -286879 -268932 -247871 -228829 -218265 -222106 
1778.624 -244758 -287144 -345483 -410568 -470910 -517675 -547095 -562086 
1782.482 -569432 -577175 -591702 -615856 -648942 -687186 -725757 -760058 
1786.339 -788338 -810497 -826900 -838739 -846147 -848528 -844923 -833647 
1790.196 -812150 -778349 -732042 -676236 -619264 -572476 -545110 -542231 
1794.054 -563542 -604209 -657510 -716032 -773520 -825710 -872767 -918100 
1797.911 -967099 -1024686 -1091784 -1163829 -1231137 -1280563 -1301408 
1801.286 -1290011 -1251853 -1198691 -1145489 -1106029 -1088281 -1094825 
1804.662 -1121033 -1157055 -1188976 -1202028 -1184879 -1132435 -1048188 
1808.037 -944782 -841782 -758934 -711533 -705446 -735515 -786419 -839401 
1811.894 -880736 -905437 -917604 -926598 -941708 -966537 -998968 -1030338 
1815.752 -1049742 -1047891 -1021612 -974504 -917241 -863178 -823593 -806726 
1819.609 -816284 -851438 -908776 -982703 -1065508 -1146777 -1215146 -1257569 
1823.467 -1263714 -1229948 -1163036 -1082067 -1011728 -974769 -983595 
1826.842 -1038602 -1130584 -1244353 -1361594 -1459319 -1516280 -1517535 
1830.217 -1462622 -1366020 -1250862 -1138846 -1044023 -974240 -931656 
1833.592 -913637 -913372 -921870 -929342 -928515 -917505 -900675 -887085 
1837.450 -887548 -910297 -957247 -1023826 -1100245 -1175395 -1240190 
1840.825 -1288128 -1317298 -1328694 -1325986 -1313235 -1295099 -1274781 
1844.200 -1252514 -1227734 -1199451 -1166506 -1129890 -1090925 -1051361 
1847.576 -1014108 -982240 -959428 -949841 -957048 -983430 -1030074 -1096015 
1851.433 -1177774 -1269099 -1362089 -1447200 -1516280 -1564881 -1592315 
1854.808 -1601030 -1594428 -1575511 -1544510 -1500959 -1444459 -1376094 
1858.183 -1299823 -1221853 -1148958 -1087620 -1042767 -1016323 -1008125 
1861.559 -1017480 -1042833 -1082861 -1136004 -1198889 -1264606 -1325292 
1864.934 -1371337 -1395944 -1397595 -1380982 -1356111 -1336556 -1333550 
1868.309 -1349504 -1375466 -1393236 -1384516 -1338472 -1255454 -1143572 
1871.684 -1017942 -893963 -785956 -704785 -655095 -635145 -638024 -654202 
1875.542 -673390 -687153 -692512 -689998 -684308 -682025 -689534 -710706 
1879.399 -746266 -793861 -849818 -909933 -972157 -1036057 -1101865 -1168588 
1883.257 -1232096 -1284957 -1318652 -1325919 -1305339 -1261203 -1203515 
1886.632 -1146381 -1102592 -1082596 -1089867 -1120703 -1163763 -1203515 
1890.007 -1228659 -1233417 -1221126 -1201830 -1187522 -1186993 -1203317 
1893.382 -1231600 -1259287 -1269661 -1247261 -1186167 -1095255 -996356 
1896.758 -917009 -884407 -914463 -1007100 -1144167 -1295429 -1425007 
1900.133 -1501752 -1510403 -1453177 -1348513 -1223472 -1107913 -1024818 
1903.508 -985711 -991629 -1035198 -1106657 -1194692 -1289681 -1382700 
1906.883 -1464636 -1526384 -1560589 -1561942 -1529124 -1466386 -1381907 
1910.259 -1285816 -1190562 -1107285 -1045411 -1013744 -1019496 -1065508 
1913.634 -1148529 -1258461 -1376292 -1478869 -1545137 -1558080 -1510106 
1917.009 -1405819 -1262128 -1102360 -950667 -823990 -728040 -663929 -631638 
1920.867 -634053 -675971 -760654 -881927 -1023397 -1161450 -1273394 -1345475 
1924.724 -1377481 -1378571 -1363179 -1345111 -1333781 -1333715 -1345574 
1928.099 -1367935 -1400568 -1441685 -1488081 -1531468 -1560094 -1560193 
1931.474 -1522884 -1449247 -1353699 -1260278 -1199384 -1196972 -1264242 
1934.850 -1396406 -1576040 -1778797 -1980306 -2161215 -2308201 -2410591 
1938.225 -2460937 -2451448 -2375629 -2231929 -2027964 -1783516 -1530412 
1941.600 -1308313 -1148298 -1063492 -1042999 -1059724 -1085604 -1102228 
1944.975 -1106756 -1108838 -1121430 -1150710 -1192016 -1229287 -1242470 
1948.351 -1217227 -1152660 -1063393 -975727 -916183 -898129 -916579 -946336 
1952.208 -946303 -873958 -702635 -429238 -80872 292672 625789 859784 954911 
1956.548 904838 734672 493215 234254 -2849 -203991 -382628 -568142 -793133 
1960.887 -1075358 -1406744 -1758041 -2091149 -2374542 -2592012 -2750772 
1964.263 -2871096 -2975327 -3073315 -3151710 -3177762 -3113419 -2930735 
1967.638 -2629657 -2241983 -1822881 -1427187 -1101303 -878289 -776695 
1971.013 -808446 -974702 -1258626 -1622719 -2005933 -2333051 -2526035 
1974.388 -2527286 -2318451 -1934754 -1457635 -989777 -626080 -418480 -371141 
1978.246 -448899 -605632 -795680 -995199 -1199715 -1412457 -1630344 -1840896 
1982.103 -2017246 -2132267 -2168106 -2125936 -2023281 -1887283 -1741276 
1985.478 -1596871 -1457668 -1325523 -1207909 -1125098 -1103253 -1160459 
1988.854 -1296982 -1486529 -1675466 -1794009 -1783186 -1612387 -1298369 
1992.229 -903221 -517113 -226014 -88458 -125626 -320188 -629289 -994901 
1996.086 -1360504 -1677315 -1907011 -2027470 -2033868 -1942176 -1781866 
1999.462 -1600073 -1446572 -1364104 -1384186 -1518823 -1754741 -2060382 
2002.837 -2394840 -2713862 -2980263 -3172038 -3278006 -3300828 -3253342 
2006.212 -3157697 -3037683 -2916846 -2812765 -2735231 -2686860 -2668617 
2009.587 -2679286 -2724925 -2814246 -2956306 -3158157 -3418073 -3719623 
2012.963 -4033143 -4319569 -4540298 -4662782 -4674878 -4579217 -4396821 
2016.338 -4158986 -3901648 -3654112 -3434280 -3241075 -3059431 -2869285 
2019.713 -2652381 -2402024 -2128541 -1857228 -1617767 -1436203 -1325556 
2023.088 -1280860 -1283999 -1311616 -1341577 -1361528 -1370611 -1376953 
2026.464 -1394358 -1437128 -1512351 -1623280 -1765763 -1928783 -2096029 
2029.839 -2251476 -2372597 -2441069 -2444562 -2378595 -2251245 -2084653 
2033.214 -1909188 -1752266 -1634933 -1564154 -1532525 -1525558 -1521695 
2036.589 -1501124 -1445152 -1343889 -1192941 -999397 -783211 -574495 -412488 
2040.447 -335054 -365612 -504371 -729826 -1000687 -1268769 -1497921 -1665003 
2044.304 -1764938 -1807010 -1803051 -1759361 -1676259 -1552665 -1392410 
2047.679 -1217095 -1062302 -966239 -959462 -1048452 -1212139 -1409287 
2051.054 -1591391 -1719264 -1771010 -1749725 -1674344 -1575214 -1478637 
2054.430 -1401955 -1348745 -1313697 -1282710 -1241049 -1176419 -1078564 
2057.805 -941741 -767831 -565825 -353826 -156099 927 100407 136202 117177 
2062.145 61070 -8912 -75174 -127083 -162988 -185345 -194552 -186438 -156000 
2066.484 -99556 -24452 50896 100208 98220 31644 -95680 -262309 -439830 
2070.824 -601893 -737268 -854943 -976455 -1123049 -1305637 -1513870 -1718901 
2074.681 -1882599 -1971137 -1967409 -1875737 -1717515 -1521200 -1316373 
2078.056 -1125032 -958800 -824982 -727676 -670545 -658040 -691685 -767004 
2081.914 -872403 -992819 -1110788 -1213427 -1294702 -1354822 -1398388 
2085.289 -1431051 -1457866 -1481114 -1503634 -1527374 -1554415 -1585349 
2088.664 -1619781 -1653253 -1680714 -1697349 -1699957 -1688306 -1663386 
2092.040 -1624403 -1566466 -1482237 -1362816 -1204407 -1014835 -813605 
2095.415 -630017 -494144 -429403 -442048 -520555 -636733 -757115 -853389 
2099.272 -908512 -921804 -905470 -878819 -857027 -850909 -861888 -884671 
2103.130 -912281 -940650 -968719 -1000422 -1040718 -1092412 -1154378 
2106.505 -1222646 -1289284 -1347126 -1392509 -1425371 -1449842 -1472528 
2109.880 -1497723 -1525690 -1550651 -1560952 -1542958 -1485473 -1383459 
2113.255 -1240653 -1070466 -892508 -726617 -592330 -503444 -467964 -489743 
2117.113 -569697 -704917 -889102 -1111350 -1352312 -1584788 -1780051 
2120.488 -1909122 -1952105 -1904966 -1778863 -1598687 -1396538 -1206621 
2123.863 -1054600 -956255 -914629 -921704 -962867 -1021711 -1083852 -1139904 
2127.721 -1187423 -1228791 -1270685 -1319115 -1375004 -1431348 -1472859 
2131.096 -1477680 -1424446 -1301408 -1110325 -872205 -619528 -392163 -223862 
2134.953 -134834 -127149 -186902 -292739 -421856 -558314 -694331 -826106 
2138.811 -950304 -1061211 -1152726 -1218152 -1258296 -1280100 -1294537 
2142.186 -1311979 -1338406 -1369653 -1396307 -1409683 -1408296 -1401228 
2145.561 -1409386 -1457833 -1565244 -1738900 -1966255 -2221017 -2471117 
2148.937 -2684950 -2837487 -2912732 -2900719 -2793967 -2592704 -2305070 
2152.312 -1950125 -1566796 -1209562 -935426 -799285 -832258 -1025049 
2155.687 -1329223 -1667380 -1950257 -2099492 -2076574 -1887382 -1580662 
2159.062 -1226049 -886457 -595242 -357501 -155967 26342 194043 331798 417988 
2163.402 426545 347317 189402 -18488 -240453 -443471 -610231 -743289 -858978 
2167.741 -976719 -1106921 -1240554 -1352444 -1415100 -1408461 -1337745 
2171.117 -1235433 -1155601 -1155006 -1270949 -1506474 -1823310 -2158478 
2174.492 -2434315 -2592902 -2613289 -2512199 -2333249 -2132827 -1958306 
2177.867 -1830668 -1749626 -1697184 -1652262 -1601361 -1545600 -1492770 
2181.242 -1455059 -1436731 -1428739 -1411962 -1368926 -1285452 -1165382 
2184.618 -1027330 -901568 -819658 -804973 -863475 -982670 -1134286 -1280199 
2188.475 -1382072 -1413283 -1361726 -1235961 -1063029 -883845 -737070 
2191.850 -659165 -669553 -766475 -928714 -1124272 -1316538 -1474807 -1582411 
2195.708 -1636319 -1644637 -1624369 -1592876 -1565970 -1555273 -1567357 
2199.083 -1603110 -1661241 -1734808 -1812356 -1882698 -1932676 -1953622 
2202.458 -1943924 -1908924 -1857261 -1799751 -1742563 -1684840 -1618362 
2205.833 -1532756 -1416850 -1266522 -1086000 -888011 -691751 -519231 -390044 
2209.691 -321115 -322373 -397261 -539120 -733101 -951560 -1161747 -1333814 
2213.548 -1445945 -1492341 -1487652 -1459848 -1438647 -1447398 -1491714 
2216.924 -1556825 -1615688 -1639356 -1611363 -1534440 -1432174 -1337382 
2220.299 -1283999 -1291564 -1361329 -1476821 -1615787 -1754675 -1875572 
2223.674 -1970114 -2032087 -2053589 -2025722 -1937426 -1783813 -1572672 
2227.049 -1327901 -1080944 -865889 -707100 -608676 -560233 -541403 -535778 
2230.907 -539120 -563178 -626708 -747258 -926598 -1144762 -1362585 -1536751 
2234.764 -1628529 -1620474 -1520044 -1354459 -1159533 -967099 -796672 
2238.139 -653011 -531178 -422419 -321744 -231512 -160107 -118504 -117245 
2241.997 -165108 -265620 -419837 -623830 -868634 -1136037 -1401592 -1634933 
2245.854 -1805063 -1891671 -1888834 -1809419 -1681870 -1541407 -1421507 
2249.229 -1342865 -1311021 -1316901 -1344252 -1375466 -1399610 -1414472 
2252.605 -1425932 -1441685 -1468863 -1508224 -1552863 -1590070 -1603771 
2255.980 -1579671 -1508025 -1387852 -1225884 -1039363 -850148 -681859 
2259.355 -556229 -487095 -477530 -519628 -597194 -687153 -765351 -813605 
2263.213 -818930 -778316 -697937 -592032 -479085 -379152 -309759 -281084 
2267.070 -294494 -342338 -411065 -486069 -555898 -616518 -670512 -724500 
2270.927 -783178 -845221 -901568 -936847 -935657 -890557 -805337 -695820 
2274.785 -584157 -491464 -429238 -396301 -379417 -360911 -327903 -277508 
2278.642 -219656 -172527 -155801 -180278 -244824 -334260 -428311 -505993 
2282.500 -555534 -576249 -578267 -575620 -580550 -597591 -623830 -647751 
2286.357 -656948 -642325 -601330 -539021 -466012 -394480 -334822 -291845 
2290.215 -265753 -252871 -248136 -247771 -251282 -259858 -277210 -305487 
2294.072 -345185 -393288 -444332 -490835 -526511 -546665 -550405 -539683 
2297.929 -518800 -493118 -468395 -448734 -437347 -436884 -447807 -469123 
2301.787 -499142 -533759 -567976 -596830 -615591 -620422 -609172 -580220 
2305.644 -532402 -465482 -380477 -281084 -174813 -73087 12359 70780 97193 
2309.984 94375 72503 43871 20642 7355 1192 -8217 -32238 -77924 -142817 
2314.806 -215947 -281250 -324194 -336643 -321645 -289627 -252408 -218265 
2318.663 -185974 -145500 -83390 10934 137594 283786 427274 545364 620380 
2323.003 647225 632558 591812 539757 487874 441072 398420 357630 317208 
2327.342 277486 241150 211347 188938 174021 165801 165038 174320 198286 
2331.682 239757 298474 370231 447142 521411 589191 650012 707357 764478 
2336.021 820178 866922 894080 890229 851252 783431 704537 635644 597419 
2340.361 600007 639891 700952 761325 800228 804643 772013 708652 626021 
2344.701 536207 449662 373548 312234 267838 239956 226497 223414 225436 
2349.040 228022 227988 225469 224839 233591 259417 307128 374808 453211 
2353.380 527914 585375 618555 628709 625324 619717 621177 632326 647822 
2357.719 659038 659105 646097 624030 602695 591182 596424 620248 659901 
2362.059 709116 761192 808958 845342 865162 864731 842553 802352 750172 
2366.399 693220 637004 583119 526752 460044 375836 272248 154829 36946 
2370.738 -63678 -130594 -154575 -136358 -86438 -21139 40259 82644 97690 
2375.078 83638 44832 -11530 -77394 -146328 -214059 -277044 -333167 -379881 
2379.417 -414077 -434037 -438605 -429072 -409078 -384383 -360183 -341345 
2383.275 -329293 -322473 -316778 -307937 -293335 -273667 -253765 -240453 
2387.132 -240685 -258832 -293898 -340848 -391699 -438340 -475014 -500433 
2390.990 -516186 -525519 -530218 -530350 -523963 -509766 -488452 -464555 
2394.847 -445589 -440062 -452706 -483388 -525519 -568539 -601264 -616021 
2398.705 -610628 -589088 -558314 -525684 -496064 -470811 -448204 -425828 
2402.562 -402491 -379119 -357865 -341610 -331776 -327439 -326347 -324989 
2406.419 -320387 -311712 -299660 -286316 -275024 -269660 -273071 -287806 
2410.277 -314493 -351012 -392461 -431654 -460617 -472995 -466839 -444398 
2414.134 -413150 -381073 -355018 -337471 -326777 -318036 -307408 -294263 
2417.992 -283104 -281481 -296912 -332306 -383622 -440194 -487558 -512744 
2421.849 -508673 -476404 -424074 -364520 -310785 -271216 -250156 -247043 
2425.707 -258766 -281647 -313467 -352932 -399810 -453699 -513836 -578102 
2429.564 -644508 -709747 -770047 -821311 -858349 -876702 -873296 -848429 
2433.421 -805403 -750962 -693339 -639579 -595441 -563575 -543786 -534884 
2437.279 -534686 -540940 -551596 -564270 -576083 -585448 -591966 -597459 
2441.136 -605367 -619694 -642027 -670281 -698632 -718050 -720994 -703693 
2444.994 -668395 -622473 -575852 -537829 -512347 -498546 -490371 -481535 
2448.851 -466839 -445821 -420995 -397790 -380808 -372531 -372796 -380245 
2452.708 -393222 -410734 -432018 -455652 -477861 -493681 -497255 -484414 
2456.566 -455652 -415997 -373227 -335882 -309593 -294892 -288369 -284329 
2460.423 -277971 -268468 -259262 -255686 -263633 -285687 -319890 -361010 
2464.281 -403120 -441220 -473392 -500598 -524923 -548221 -571120 -592032 
2468.138 -608610 -619628 -624425 -623499 -617775 -607650 -593621 -576712 
2471.996 -560431 -549743 -551331 -570193 -607286 -656915 -708556 -750202 
2475.853 -771800 -771536 -755362 -737004 -731017 -747622 -787478 -840889 
2479.710 -890491 -917307 -908743 -861723 -784402 -692148 -603713 -533693 
2483.568 -490272 -474286 -480839 -503147 -534785 -571351 -610595 -651258 
2487.425 -691387 -728437 -759199 -780797 -791281 -790521 -779044 -759000 
2491.283 -733001 -704454 -676864 -654367 -639413 -633127 -633325 -634980 
2495.140 -631770 -618437 -592132 -554740 -511917 -472069 -442379 -427781 
2498.998 -429502 -445490 -472300 -507217 -548485 -594646 -643317 -689534 
2502.855 -725393 -743487 -738062 -709416 -664028 -613573 -570193 -542165 
2506.712 -529722 -524956 -515954 -490305 -441849 -374187 -300156 -236678 
2510.570 -199851 -199156 -233598 -293501 -363659 -429039 -479085 -510163 
2514.427 -525055 -530747 -534686 -541966 -554541 -570623 -586076 -595738 
2518.285 -595838 -583330 -557222 -518767 -470811 -417818 -364685 -316381 
2522.142 -276581 -247540 -229955 -223067 -225451 -235088 -249560 -266183 
2526.000 -281912 -293335 -297375 -292773 -279627 -260322 -238433 -217503 
2529.857 -200116 -187564 -179648 -175939 -176833 -183490 -197665 -220484 
2533.714 -250984 -285985 -321380 -352634 -377034 -395142 -409674 -423544 
2537.572 -439466 -456645 -472201 -481998 -482726 -474088 -459193 -443206 
2541.429 -430727 -424372 -422816 -421856 -415931 -401200 -376074 -341676 
2545.287 -300686 -255885 -208793 -160769 -113535 -71232 -40222 -28461 -41581 
2549.626 -80640 -139405 -205945 -263401 -296514 -295190 -257375 -188922 
2553.484 -101146 -7521 79562 151780 203424 231933 236542 217745 178198 
2557.823 123276 61998 4572 -38831 -61393 -63314 -50890 -34524 -26307 -35087 
2562.645 -62883 -105187 -151628 -190478 -211741 -210250 -185709 -143016 
2566.502 -88326 -27699 34162 94276 150719 201501 243271 273375 289389 291014 
2571.324 280636 263197 243835 227955 218839 217480 223380 235348 252621 
2575.664 275364 304177 339624 380578 425317 470294 512521 549809 581328 
2580.003 606610 625258 635379 633719 617062 583949 536174 480676 428402 
2584.343 390494 376400 390361 429165 484225 544567 600240 645433 679713 
2588.683 706528 730357 753657 775100 789838 791862 776925 744530 700089 
2593.022 652567 611720 585641 578275 588129 609928 636142 660299 678053 
2597.362 688242 692290 693618 695509 700687 710245 723919 740414 757640 
2601.701 774502 789871 803381 815099 824959 831930 834586 831200 820543 
2606.041 803049 781506 760462 744895 739451 745625 761491 782203 801024 
2610.381 812344 813307 804775 790933 777987 770751 772643 784128 802916 
2614.720 826253 851683 877812 904373 931435 958631 984599 1007481 1026046 
2619.060 1039996 1050857 1061187 1073211 1088092 1104900 1120712 1131841 
2622.917 1134864 1128486 1114035 1094968 1075702 1060987 1054178 1056204 
2626.775 1066169 1081614 1098489 1112441 1119782 1117523 1105265 1084538 
2630.632 1060024 1037737 1024652 1025947 1044413 1078625 1123968 1173834 
2634.490 1220848 1259260 1285945 1300900 1306317 1305287 1301099 1296181 
2638.347 1291794 1288105 1285048 1282024 1278401 1273981 1268465 1261952 
2642.204 1255040 1248859 1244672 1243808 1246899 1254076 1265076 1279731 
2646.062 1297776 1320441 1348758 1383426 1423382 1465736 1505400 1537021 
2649.919 1556241 1561761 1556341 1545800 1537719 1538717 1552018 1576925 
2653.777 1608651 1641111 1668351 1687011 1697456 1702645 1706604 1713024 
2657.634 1723336 1736809 1751546 1764787 1774701 1780989 1784250 1785647 
2661.491 1786313 1786812 1786945 1786113 1783684 1779026 1771607 1761094 
2665.349 1747255 1730455 1711726 1693631 1679294 1672043 1674239 1686013 
2669.206 1705639 1728958 1751480 1769245 1780723 1786313 1788775 1791736 
2673.064 1798057 1809037 1824376 1842277 1860246 1876186 1888732 1897051 
2676.921 1901211 1901378 1898382 1893357 1888266 1884971 1885337 1889963 
2680.779 1898016 1907501 1915122 1918317 1915588 1907568 1896253 1884905 
2684.636 1876119 1871061 1869297 1868898 1867634 1863907 1857584 1849565 
2688.493 1841911 1836221 1833160 1832295 1832328 1831363 1827803 1821282 
2692.351 1811998 1801385 1791104 1782753 1777296 1774834 1774236 1773703 
2696.208 1771142 1764820 1754341 1740801 1727095 1716949 1714221 1721041 
2700.066 1737507 1761593 1789340 1817189 1841911 1862542 1879114 1892492 
2703.923 1903374 1911062 1914124 1911561 1903142 1891261 1879813 1874389 
2707.781 1879314 1896486 1924541 1959121 1994204 2024496 2046567 2060316 
2711.638 2068273 2074332 2082855 2097271 2119046 2148182 2183745 2223376 
2715.495 2264541 2304479 2340289 2369805 2391960 2407620 2419415 2430876 
2719.353 2445804 2466764 2493523 2523616 2552978 2577409 2593309 2600175 
2723.210 2599342 2593975 2587875 2583976 2583442 2586042 2590075 2593075 
2727.068 2593042 2587642 2575543 2555644 2527682 2492423 2451435 2407520 
2730.925 2363975 2324066 2289822 2261877 2239295 2219945 2201728 2183379 
2734.782 2164565 2146350 2130234 2117148 2106727 2097038 2085319 2069072 
2738.640 2046800 2019170 1989411 1961984 1941714 1932462 1935191 1948204 
2742.497 1966810 1985483 1998365 2001361 1993205 1975065 1950268 1922810 
2746.355 1896253 1873158 1854456 1840214 1830332 1824875 1824343 1829134 
2750.212 1838950 1852193 1865970 1876785 1881577 1879148 1870928 1860413 
2754.070 1852160 1850496 1857817 1873790 1895487 1919083 1940549 1957224 
2757.927 1967975 1973700 1975364 1974499 1972235 1969373 1966943 1966910 
2761.784 1971203 1981722 1999330 2023098 2050195 2076729 2099269 2115484 
2765.642 2126205 2133930 2142920 2156972 2178118 2205925 2238229 2271236 
2769.499 2301814 2328629 2352182 2374936 2400057 2430243 2466397 2507652 
2773.357 2551212 2593375 2631176 2662546 2687716 2708988 2730127 2755401 
2777.214 2788314 2830634 2881664 2938203 2996319 3051639 3101259 3144678 
2781.072 3183561 3221113 3260571 3304072 3352052 3402875 3454373 3504307 
2784.929 3552075 3598846 3646558 3697450 3752859 3812120 3873394 3933574 
2788.786 3990619 4043791 4094428 4145741 4201341 4264444 4336726 4417655 
2792.644 4505430 4596805 4688702 4778475 4864714 4947183 5026852 5105698 
2796.501 5185799 5269436 5358288 5452964 5552593 5655334 5757595 5855884 
2800.359 5947040 6029345 6103232 6171619 6238908 6311385 6395037 6494076 
2804.216 6610765 6744379 6891028 7045237 7201049 7353279 7498987 7637967 
2808.073 7772032 7904283 8037384 8173329 8311849 8452035 8592570 8733185 
2811.931 8875029 9020979 9173880 9336451 9509819 9693386 9885471 10084390 
2815.788 10289574 10501883 10723227 10955728 11200456 11456720 11721916 
2819.164 11992248 12264793 12538021 12812752 13092266 13381290 13685380 
2822.539 14008367 14352965 14719978 15108228 15516364 15942860 16387600 
2825.914 16852808 17342444 17862670 18421200 19024860 19679836 20389906 
2829.289 21156236 21978290 22855232 23786722 24775600 25827040 26949912 
2832.665 28155198 29454428 30858932 32378822 34022072 35794740 37701180 
2836.040 39744360 41925852 44246776 46707932 49309552 52051740 54933092 
2839.415 57949840 61095496 64359352 67727576 71186016 74720352 78319440 
2842.790 81976488 85686312 89444136 93241792 97064816 100893416 104701840 
2846.166 108459768 112137368 115701000 119113568 122333480 125309064 
2849.059 127982784 130295528 132187936 133611648 134531600 134926928 
2851.952 134791552 134132784 132970784 131336584 129276768 126850976 
2854.845 124126344 121179232 118083528 114904480 111699712 108512040 
2857.738 105373872 102310504 99340176 96479648 93744640 91149144 88707760 
2861.113 86433592 84337688 82429768 80715768 79198176 77875264 76741496 
2864.488 75787656 75002344 74373152 73886400 73527304 73279064 73120352 
2867.864 73025120 72964360 72903656 72810192 72653456 72406456 72050144 
2871.239 71571816 70965520 70233032 69383200 68432608 67403752 66326060 
2874.614 65232208 64154080 63123612 62166312 61302336 60546676 59908020 
2877.989 59391472 58999976 58733912 58592716 58575040 58678612 58900616 
2881.365 59238284 59688844 60249404 60917576 61690376 62564076 63534880 
2884.740 64597160 65744496 66970056 68265424 69621712 71030248 72482128 
2888.115 73968936 75484224 77022304 78578040 80147384 81725288 83305944 
2891.490 84882744 86448552 87996608 89521624 91020456 92492184 93938928 
2894.865 95365736 96778864 98186392 99595200 101010184 102432224 103859056 
2898.241 105284520 106701880 108107008 109498840 110882472 112266032 
2901.134 113660296 115074856 116515840 117985832 119484456 121010688 
2904.027 122564136 124146760 125761944 127414184 129106880 130843328 
2906.920 132625792 134456400 136337488 138271680 140259680 142299872 
2909.813 144387984 146516464 148676832 150861984 153066016 155285104 
2912.706 157515984 159752736 161985296 164199552 166375808 168491808 
2915.599 170522832 172440208 174214256 175810304 177190320 178316672 
2918.492 179152080 179663232 179823072 179608864 179002864 177991872 
2921.385 176569168 174738624 172517408 169939376 167048832 163898624 
2924.278 160541472 157021680 153375696 149632432 145815008 141947888 
2927.171 138057152 134170608 130316648 126519592 122798920 119168136 
2930.064 115634832 112202320 108872112 105642720 102512600 99479776 96542800 
2933.440 93701840 90958600 88315944 85777176 83344520 81018448 78797904 
2936.815 76680928 74666048 72753664 70945736 69246536 67661008 66193716 
2940.190 64850108 63634500 62551872 61607396 60805468 60149612 59640868 
2943.565 59277556 59056268 58972192 59020660 59197312 59497284 59913724 
2946.941 60435200 61045192 61722764 62442824 63182628 63921428 64643264 
2950.316 65336832 65990628 66591292 67122320 67561856 67887272 68079576 
2953.691 68125192 68019936 67767960 67379296 66866076 66241184 65516496 
2957.066 64702056 63807816 62843376 61816924 60735688 59604496 58424760 
2960.442 57196552 55918924 54590940 53212696 51785792 50313452 48800184 
2963.817 47252936 45680996 44095688 42509096 40933520 39378660 37851544 
2967.192 36356368 34894752 33468608 32080162 30732520 29429786 28175280 
2970.567 26970044 25814028 24705272 23641848 22622730 21648766 20721604 
2973.943 19843198 19014856 18236048 17504790 16818466 16173359 15566880 
2977.318 14996847 14460583 13955500 13478654 13027219 12599653 12195610 
2980.693 11816422 11463353 11137017 10835690 10555553 10290626 10034881 
2984.068 9783995 9536067 9292139 9054403 8824744 8603554 8388051 8174037 
2987.926 7957195 7734557 7506235 7275944 7049850 6834746 6636670 6459906 
2991.783 6305333 6171418 6054275 5948686 5848730 5748731 5643954 5531216 
2995.641 5409482 5279967 5145529 5010663 4879491 4755259 4638967 4529235 
2999.498 4422676 4315140 4203014 4084194 3959621 3832310 3706974 3588423 
3003.355 3480291 3383607 3296827 3216606 3139037 3061816 2984708 2909816 
3007.213 2841040 2781945 2734728 2698552 2670947 2647477 2623742 2597242 
3011.070 2566810 2532848 2496288 2457000 2414083 2365674 2310308 2247022 
3014.928 2176985 2102365 2025861 1950468 1878149 1810202 1748319 1694629 
3018.785 1651488 1621222 1604627 1599904 1601999 1603995 1599040 1582212 
3022.643 1552583 1513446 1471321 1434053 1406828 1391803 1386916 1386817 
3026.500 1384324 1374452 1354376 1325061 1290531 1256569 1228357 1209218 
3030.357 1199284 1195396 1191908 1183136 1164631 1135163 1097492 1056636 
3034.215 1018972 989415 969755 958066 949930 939636 923133 898795 868217 
3038.554 835349 803713 776361 753458 734141 716451 699791 684724 673441 
3042.894 668098 669790 676991 686715 694447 696240 689801 675299 655355 
3047.234 633354 613545 599344 592542 593936 601865 613512 624462 630401 
3051.573 626917 611952 586404 553260 518393 486945 462499 445549 433277 
3055.913 420973 404091 380545 351528 320358 292009 270259 256400 249471 
3060.252 246786 245758 244730 243736 244167 247681 254809 265120 276525 
3064.592 287068 294595 297579 295987 289621 279045 265451 249935 233260 
3068.932 216750 200474 183800 165966 145747 123143 99512 78236 62362 54740 
3073.753 55569 62263 70448 76082 76778 73563 70879 74060 87416 112471 146377 
3079.057 183402 217247 242343 255041 254046 238696 208628 163149 102893 
3083.397 30915 -45656 -116682 -171434 -201507 -204289 -183921 -150170 
3087.254 -115655 -90645 -80905 -86338 -102305 -122644 -141889 -157656 
3091.112 -169778 -179052 -185345 -187233 -181934 -167195 -142817 -111514 
3094.969 -78255 -49168 -28328 -17030 -13882 -14976 -16102 -14611 -9376 -1557 
3099.791 6129 10304 7952 -3578 -26042 -59239 -101610 -149276 -197202 -239989 
3104.613 -272276 -291746 -297806 -291680 -275587 -251679 -221477 -185908 
3108.470 -147023 -108235 -74942 -53905 -50095 -65633 -97999 -140962 -185312 
3112.810 -222471 -247142 -257706 -256514 -248136 -237406 -227306 -218331 
3116.667 -209422 -199123 -186272 -171699 -156629 -143082 -132979 -126917 
3120.525 -124963 -126520 -130594 -135927 -141558 -146858 -151495 -156232 
3124.382 -161962 -170341 -182497 -198228 -215516 -230982 -240254 -240056 
3128.240 -229657 -211840 -191605 -175839 -170408 -178323 -198659 -226544 
3132.097 -254858 -275488 -282177 -271448 -244195 -204720 -160007 -118438 
3135.954 -88061 -75207 -83290 -111978 -156463 -209456 -262507 -306911 
3139.812 -336577 -348595 -343530 -323565 -292971 -256083 -216775 -178622 
3143.669 -145400 -119928 -104724 -101610 -109858 -127547 -151628 -179052 
3147.527 -207038 -234989 -262309 -289759 -316844 -341444 -360646 -371306 
3151.384 -370677 -358726 -337206 -310321 -282210 -256712 -235651 -219093 
3155.241 -206044 -195049 -185676 -178489 -175044 -177164 -185312 -198460 
3159.099 -213661 -226809 -233929 -232505 -222305 -205316 -185444 -166996 
3162.956 -152456 -142287 -134337 -124499 -109427 -87431 -60995 -35717 -19416 
3167.296 -18885 -38201 -75472 -124400 -174846 -216708 -242208 -248699 
3171.153 -238102 -216212 -190644 -167758 -152290 -147023 -152191 -167029 
3175.011 -190677 -220848 -254659 -288898 -319427 -343066 -358726 -366903 
3178.868 -370048 -371604 -373359 -375643 -376438 -372432 -360448 -338928 
3182.726 -309163 -273435 -236015 -200514 -169944 -146063 -130462 -124301 
3186.583 -128806 -144639 -171070 -204620 -240089 -270620 -289660 -293766 
3190.440 -282806 -260388 -233598 -210250 -196705 -197367 -213363 -243168 
3194.298 -283104 -328466 -374054 -414143 -444663 -462338 -466045 -457207 
3198.155 -438605 -414971 -390408 -368261 -350151 -336842 -328896 -326810 
3202.013 -332339 -347106 -371141 -403219 -438605 -471340 -494972 -505563 
3205.870 -502220 -488187 -469421 -451680 -440095 -436685 -441022 -451117 
3209.728 -465184 -482825 -505000 -532965 -566884 -604275 -640770 -670082 
3213.585 -686822 -688377 -675342 -652416 -625252 -599477 -578730 -563840 
3217.442 -553548 -545970 -539815 -535711 -534619 -538855 -549412 -565561 
3221.300 -585348 -605996 -625054 -640968 -653441 -662837 -669255 -671902 
3225.157 -669189 -659132 -641200 -616518 -588459 -562351 -543621 -536340 
3229.015 -541668 -557420 -578797 -600073 -616121 -623929 -623565 -617676 
3232.872 -609768 -603746 -602621 -606691 -615194 -625583 -635311 -642325 
3236.729 -646096 -647354 -647949 -650397 -656386 -666675 -680470 -695324 
3240.587 -708787 -717951 -721986 -720895 -716297 -710342 -704785 -699856 
3244.444 -694894 -688178 -678187 -664557 -647684 -630282 -614565 -602058 
3248.302 -593588 -588194 -583893 -579293 -574495 -571020 -571748 -579525 
3252.159 -595937 -619892 -648677 -676897 -698930 -711235 -712559 -704255 
3256.017 -690692 -676897 -667402 -664954 -670347 -681859 -696812 -712360 
3259.874 -726584 -738988 -750566 -762903 -777225 -793497 -809207 -820484 
3263.731 -822502 -812216 -788768 -755428 -718347 -685532 -663168 -654070 
3267.589 -656584 -665020 -671207 -669156 -655922 -633590 -607782 -586076 
3271.446 -574594 -575157 -585779 -601066 -615326 -625153 -630116 -633491 
3275.304 -639678 -651787 -669983 -691122 -710905 -725029 -732042 -734225 
3279.161 -736607 -744248 -760488 -783641 -808645 -827826 -833779 -822766 
3283.019 -795614 -758372 -718877 -685796 -664491 -656121 -658470 -666675 
3286.876 -676666 -685730 -693703 -702965 -715734 -733597 -755097 -776695 
3290.733 -793034 -798888 -790653 -768559 -735879 -699128 -665484 -641564 
3294.591 -630844 -633656 -646394 -663730 -679643 -689733 -692611 -689998 
3298.448 -685730 -683877 -687450 -696812 -709251 -720365 -725790 -723111 
3302.306 -712922 -698268 -684076 -674780 -673027 -677989 -686888 -695555 
3306.163 -700054 -698830 -691949 -682389 -673126 -667436 -666939 -671802 
3310.021 -681463 -694331 -708854 -723673 -736871 -746332 -749739 -745405 
3313.878 -732472 -712062 -686226 -658338 -631373 -607485 -587334 -570557 
3317.735 -556295 -544514 -536506 -534322 -541039 -557883 -584720 -618900 
3321.593 -655162 -688443 -713981 -728536 -731744 -725592 -713286 -698963 
3325.450 -686524 -678651 -676335 -679478 -687086 -697904 -711169 -727444 
3329.308 -747820 -774182 -807156 -845684 -885895 -921341 -943757 -946667 
3333.165 -926036 -882952 -823362 -757644 -696184 -648478 -619727 -609966 
3337.022 -615591 -630943 -650199 -669420 -686623 -700881 -712095 -719340 
3340.880 -721788 -718513 -709978 -698202 -686425 -678055 -675805 -680172 
3344.737 -690130 -703131 -716230 -727444 -736210 -742759 -747919 -752153 
3348.595 -755461 -756387 -754336 -748482 -739650 -729627 -720465 -714014 
3352.452 -711235 -711335 -712195 -711401 -706075 -694431 -676302 -653375 
3356.310 -628528 -605632 -588922 -581576 -585547 -601264 -627535 -662076 
3360.167 -702171 -744942 -787775 -828388 -864765 -894889 -917009 -929871 
3364.024 -933574 -929177 -919158 -906925 -895253 -885994 -879447 -875247 
3367.882 -871544 -866947 -860730 -852728 -843005 -831629 -817905 -800542 
3371.739 -778614 -752021 -721887 -691189 -663565 -642424 -629752 -626344 
3375.597 -630910 -640968 -653970 -667667 -679808 -689733 -696548 -700881 
3379.454 -703925 -708324 -717024 -733034 -757842 -790818 -828091 -863872 
3383.312 -890756 -903354 -898559 -876967 -842377 -800839 -757346 -716098 
3387.169 -679081 -647552 -621911 -603382 -593687 -594415 -606327 -627833 
3391.026 -655294 -684241 -710210 -730818 -746266 -759397 -773818 -792108 
3394.884 -814598 -838508 -859639 -873296 -876338 -868733 -854282 -837780 
3398.741 -825544 -821675 -827264 -840856 -858085 -873925 -883051 -882390 
3402.599 -870552 -847966 -817012 -780367 -740841 -701940 -666211 -636435 
3406.456 -615194 -604738 -606029 -618966 -641332 -669156 -698036 -723772 
3410.313 -743057 -754601 -758636 -755990 -747721 -734192 -715006 -689468 
3414.171 -658338 -624128 -592032 -569134 -562649 -578201 -617444 -678055 
3418.028 -752054 -829480 -898857 -949543 -975066 -973115 -946964 -902593 
3421.886 -848660 -792902 -741668 -699095 -666476 -643913 -631142 -627535 
3425.743 -632962 -647850 -672398 -705843 -745869 -788966 -830670 -866683 
3429.601 -894227 -912281 -921539 -923820 -920679 -912777 -899055 -877893 
3433.458 -847602 -808711 -763366 -717157 -676599 -647850 -634880 -638255 
3437.315 -655195 -680900 -709581 -736408 -759199 -777588 -792935 -807057 
3441.173 -821113 -834639 -846147 -853455 -854414 -847933 -834639 -816350 
3445.030 -795845 -775670 -758272 -744479 -733828 -724732 -715006 -702866 
3448.888 -687351 -668858 -648644 -628098 -609139 -592430 -578929 -569234 
3452.745 -564270 -566057 -576712 -598121 -631572 -675805 -726849 -779771 
3456.603 -827264 -862946 -882489 -884539 -870816 -845486 -814498 -783211 
3460.460 -756453 -736905 -725294 -720895 -722085 -727080 -735052 -745637 
3464.317 -759099 -776199 -796970 -820385 -844361 -866054 -882026 -890094 
3468.175 -889830 -882291 -870750 -858713 -849454 -845023 -844923 -846841 
3472.032 -846875 -841153 -826371 -800939 -766177 -725129 -682951 -645005 
3475.890 -616683 -600801 -598948 -610429 -633524 -665550 -703991 -746365 
3479.747 -790091 -832919 -871081 -900146 -916579 -916646 -899419 -867311 
3483.604 -826206 -783575 -747357 -723839 -716462 -724732 -744512 -770047 
3487.462 -795052 -814399 -825743 -828851 -825544 -818169 -809306 -801468 
3491.319 -796672 -796904 -803849 -817342 -835829 -856134 -873230 -882125 
3495.177 -880207 -866881 -845453 -820650 -797532 -780003 -769154 -763730 
3499.034 -762043 -762605 -765549 -773057 -787511 -810265 -840128 -872403 
3502.892 -900774 -919026 -923655 -915455 -898195 -877430 -858052 -842741 
3506.749 -831762 -824056 -817706 -811952 -807057 -804973 -807718 -816350 
3510.606 -830604 -847503 -863640 -874685 -877628 -871213 -855869 -834110 
3514.464 -809736 -787147 -770080 -760224 -757280 -759033 -761481 -761117 
3518.321 -756552 -749474 -745075 -749639 -769485 -807256 -860830 -922101 
3522.179 -980025 -1022736 -1043032 -1041445 -1026306 -1010505 -1006108 
3525.554 -1020521 -1053311 -1096940 -1139441 -1169083 -1178270 -1166341 
3528.929 -1138714 -1104377 -1071854 -1046238 -1028487 -1017116 -1009215 
3532.304 -1002968 -998968 -999563 -1007563 -1025182 -1051659 -1083488 
3535.680 -1114159 -1136202 -1141986 -1127841 -1092577 -1039098 -973446 
3539.055 -903717 -838409 -786155 -754336 -746365 -762705 -799649 -851174 
3542.912 -910132 -969578 -1024488 -1071325 -1107847 -1131807 -1140532 
3546.288 -1131708 -1104244 -1060848 -1008125 -955792 -914166 -891318 -891748 
3550.145 -914265 -952949 -997083 -1034966 -1057344 -1060120 -1045874 
3553.520 -1021645 -995992 -974868 -960751 -953048 -949279 -945510 -939525 
3557.378 -929970 -917307 -902692 -888209 -875413 -866617 -862351 -863178 
3561.235 -868898 -878356 -890094 -903354 -917935 -935194 -957511 -987463 
3565.093 -1026107 -1071193 -1115547 -1148760 -1161615 -1151470 -1124636 
3568.468 -1092875 -1067987 -1055956 -1058269 -1071226 -1088578 -1102856 
3571.843 -1108640 -1102955 -1086265 -1062236 -1036255 -1013711 -998505 
3575.218 -992951 -996554 -1007959 -1024686 -1043594 -1061641 -1075622 
3578.594 -1083125 -1083059 -1076448 -1065773 -1055592 -1050072 -1052188 
3581.969 -1063194 -1082299 -1107450 -1135938 -1165647 -1194230 -1219177 
3585.344 -1236721 -1241413 -1226875 -1189373 -1131543 -1063789 -1000687 
3588.719 -955031 -931888 -929871 -942203 -960850 -978273 -988290 -987860 
3592.577 -976653 -957544 -934566 -913273 -898261 -892706 -898361 -915025 
3596.434 -941476 -974769 -1010967 -1044486 -1069441 -1080844 -1075424 
3599.809 -1053411 -1018438 -975992 -932285 -891946 -857688 -830670 -812150 
3603.667 -803849 -808082 -827264 -861921 -909504 -963032 -1011695 -1043560 
3607.524 -1049543 -1028686 -988819 -944386 -909404 -891516 -890921 -901965 
3611.382 -914992 -920415 -911521 -886788 -850545 -811224 -777423 -754237 
3615.239 -743388 -743322 -751690 -766938 -787114 -810629 -834804 -854778 
3619.096 -865129 -861987 -845122 -818169 -787610 -759860 -739088 -727510 
3622.954 -724633 -727940 -734887 -743421 -753774 -768294 -791744 -828554 
3626.811 -880637 -942997 -999199 -1021810 -986372 -890392 -759298 -629090 
3630.669 -526578 -462503 -438407 -450091 -490272 -548849 -615657 -681926 
3634.526 -742032 -794589 -840856 -881464 -915819 -940749 -952453 -949080 
3638.384 -932351 -908413 -885498 -872503 -874784 -893136 -923192 -957247 
3642.241 -987265 -1007397 -1016223 -1017678 -1018141 -1025678 -1048056 
3645.616 -1091850 -1160690 -1253076 -1361230 -1469325 -1555802 -1599908 
3648.991 -1586868 -1516247 -1401625 -1266919 -1136665 -1026967 -944022 
3652.367 -886424 -848693 -825180 -810397 -800013 -790653 -779970 -767302 
3656.224 -753145 -738922 -726849 -717785 -712459 -710872 -712989 -718711 
3660.082 -727576 -738988 -751558 -763333 -772230 -776001 -772991 -762903 
3663.939 -746464 -725923 -704719 -687351 -677724 -680073 -698103 -734953 
3667.796 -793464 -873958 -973876 -1083422 -1186399 -1266291 -1314556 
3671.172 -1334178 -1334838 -1328694 -1325754 -1333352 -1357663 -1401162 
3674.547 -1458923 -1514332 -1544147 -1531336 -1476029 -1389570 -1283404 
3677.922 -1165647 -1042271 -919489 -804973 -706571 -630348 -577903 -547724 
3681.780 -536142 -539815 -556692 -586473 -629090 -684341 -750301 -822865 
3685.637 -895914 -962371 -1014934 -1047362 -1057443 -1048915 -1031826 
3689.012 -1017678 -1012984 -1015199 -1016752 -1007761 -983232 -943923 
3692.387 -894790 -841550 -789264 -740378 -695092 -653342 -616154 -586473 
3696.245 -569234 -569697 -590146 -629090 -680669 -735978 -784203 -816450 
3700.102 -825544 -809901 -773520 -725393 -676699 -636171 -608577 -595275 
3703.960 -596069 -611521 -642788 -691586 -757644 -838872 -929342 -1020091 
3707.817 -1100873 -1161086 -1191355 -1186035 -1144167 -1071193 -978306 
3711.192 -882522 -800641 -745141 -721192 -727047 -756056 -799979 -851008 
3715.050 -902329 -947791 -983331 -1005844 -1014571 -1010439 -996455 -975727 
3718.907 -950733 -921605 -886523 -843634 -792836 -737500 -686524 -651886 
3722.765 -644078 -669321 -725691 -803684 -886721 -956817 -997381 -998571 
3726.622 -961677 -898460 -826437 -761514 -715999 -696912 -707564 -748647 
3730.479 -818831 -914067 -1024752 -1137855 -1237547 -1309469 -1342865 
3733.855 -1333616 -1283239 -1198790 -1095552 -993910 -910760 -855605 -828554 
3737.712 -823957 -835532 -857490 -885134 -913075 -937575 -954502 -961015 
3741.570 -956222 -940914 -917737 -891979 -870816 -861623 -867774 -884407 
3745.427 -903354 -918497 -928780 -936285 -945410 -961941 -989976 -1032553 
3749.284 -1087157 -1145753 -1193965 -1218251 -1209892 -1169876 -1108409 
3752.660 -1038867 -974074 -922200 -887548 -871544 -873693 -892872 -926399 
3756.517 -970305 -1017942 -1061740 -1093701 -1108012 -1102526 -1080282 
3759.892 -1048419 -1015562 -988819 -971562 -962834 -959726 -958007 -954800 
3763.750 -949444 -944419 -944948 -957081 -984719 -1026504 -1076250 -1125264 
3767.607 -1163036 -1179889 -1168522 -1126222 -1056716 -971099 -883613 
3770.982 -805337 -742395 -694695 -658602 -630282 -606691 -586837 -571815 
3774.840 -564667 -568704 -586904 -620620 -668031 -724500 -782351 -831795 
3778.697 -863740 -873858 -864930 -845849 -826669 -815259 -814234 -822237 
3782.555 -835432 -849520 -861656 -870849 -877926 -884506 -890789 -895153 
3786.412 -894591 -886358 -869791 -846775 -821510 -798921 -782517 -773884 
3790.270 -771238 -771503 -771701 -770246 -767203 -764358 -762671 -762241 
3794.127 -761712 -758835 -752153 -743785 -739352 -746530 -771900 -817541 
3797.984 -880670 -955131 -1032718 -1105203 -1163003 -1195849 -1197038 
3801.360 -1167762 -1120405 -1072284 -1037148 -1020818 -1021545 -1034041 
3804.735 -1050337 -1058897 -1046403 -1001777 -922167 -818897 -713816 -628892 
3808.592 -576977 -560001 -573403 -608676 -656584 -709151 -760422 -807553 
3812.450 -850248 -889201 -924482 -954701 -975165 -979661 -964487 -931888 
3816.307 -892310 -858316 -839302 -838111 -852199 -875876 -900477 -916381 
3820.165 -911950 -880670 -826206 -764193 -712459 -682654 -677592 -694067 
3824.022 -725956 -764921 -802295 -828388 -835995 -822865 -793828 -758305 
3827.879 -726320 -705248 -696978 -699591 -708391 -718248 -725096 -727312 
3831.737 -726386 -725658 -728139 -736078 -749540 -767732 -789528 -814035 
3835.594 -840261 -867311 -893037 -915257 -931557 -941840 -948419 -955990 
3839.452 -969347 -990108 -1016422 -1043461 -1064417 -1072317 -1062599 
3842.827 -1033379 -986538 -927788 -864699 -804775 -753675 -715106 -690825 
3846.684 -681760 -687980 -708854 -743322 -788900 -842807 -902362 -964784 
3850.542 -1028355 -1091156 -1148760 -1192545 -1208603 -1183392 -1116208 
3853.917 -1024388 -931061 -851008 -788271 -740179 -703131 -674416 -653375 
3857.774 -640968 -638354 -647188 -667237 -697011 -734027 -773917 -812514 
3861.632 -846048 -871808 -888209 -894723 -890756 -876173 -852728 -824651 
3865.489 -798194 -780168 -775835 -787875 -816913 -861094 -915125 -968454 
3869.347 -1008125 -1022537 -1009943 -978405 -940749 -906263 -879744 -861623 
3873.204 -849355 -838409 -823692 -801765 -772594 -738327 -703065 -671339 
3877.062 -647287 -633987 -633789 -647089 -671902 -703164 -734688 -761216 
3880.919 -780631 -795019 -807454 -820054 -832919 -842906 -845353 -835168 
3884.776 -809207 -769320 -722383 -678088 -642622 -617510 -600040 -586010 
3888.634 -572311 -557023 -540047 -523765 -511553 -507383 -513902 -531310 
3892.491 -557288 -588393 -620885 -651588 -677691 -697540 -710144 -715734 
3896.349 -715867 -713353 -711335 -712360 -718248 -728271 -740378 -751227 
3900.206 -758107 -760125 -757942 -752782 -746629 -740543 -735482 -731910 
3904.063 -730653 -731579 -734060 -736309 -736078 -731182 -720795 -705546 
3907.921 -687252 -669321 -654897 -646526 -644641 -647651 -652449 -655360 
3911.778 -653375 -645170 -631936 -616385 -601959 -592529 -591304 -600073 
3915.636 -618767 -644740 -672729 -695555 -707100 -703263 -684440 -654731 
3919.493 -621646 -593323 -576911 -576149 -590676 -617245 -649570 -681032 
3923.351 -706207 -721060 -724930 -720001 -710508 -700418 -692479 -688013 
3927.208 -686226 -685796 -685035 -682687 -678651 -674151 -672199 -676401 
3931.065 -689998 -714113 -746266 -781194 -811786 -831166 -836028 -826437 
3934.923 -804940 -776398 -745439 -716131 -691685 -674317 -665748 -667336 
3938.780 -680106 -703594 -735416 -770577 -802361 -822766 -825743 -809471 
3942.638 -778217 -741403 -709151 -689634 -686094 -696912 -718678 -747522 
3946.495 -781094 -818467 -859375 -902494 -942931 -973942 -987827 -978901 
3950.353 -946865 -896542 -837383 -780135 -734556 -705645 -693769 -694629 
3954.210 -701808 -707861 -707729 -698731 -681760 -659628 -636435 -617212 
3958.067 -605764 -605169 -616385 -638487 -668229 -700584 -730090 -751558 
3961.925 -761977 -761514 -753542 -742693 -733464 -729065 -729925 -734391 
3965.782 -738889 -739650 -734027 -720465 -700120 -675805 -651489 -631043 
3969.640 -618040 -614367 -619628 -632035 -649008 -667535 -684870 -699690 
3973.497 -710971 -717587 -719175 -714080 -700782 -678981 -649703 -616253 
3977.354 -584025 -558942 -545639 -546434 -560365 -583396 -609305 -632201 
3981.212 -647453 -652812 -648412 -635542 -616683 -594282 -570524 -548187 
3985.069 -530350 -519992 -519429 -529060 -547493 -570458 -593257 -610595 
3988.927 -619065 -617609 -607121 -590014 -569134 -546533 -523665 -501227 
3992.784 -480442 -462602 -449859 -444067 -446351 -455983 -470645 -487724 
3996.642 -503511 -516021 -524294 -528696 -530714 -532137 -533693 -536075 
4000.499 -539021 
##END=
