##TITLE=ac_2 Sep 02 11:49:57 2026 (GMT+02:00)
##JCAMP-DX=5.01  $$ Nicolet v. 970
##DATATYPE=INFRARED SPECTRUM
##ORIGIN=Vojna akademija
##OWNER=Nicolet
##LONGDATE=2026/09/02
##TIME=11:50:25
##SPECTROMETER/DATA SYSTEM=Nicolet iS20
##DATA PROCESSING=
Ratio against background
%Transmittance->Absorbance
Truncated
ElementMultiply or ElementDivide
##COMMENTS=
Number of sample scans: 8
Collection length: 11,90 sec
Sample gain: 8,0
Background collected on: Wed Sep 02 11:45:00 2026 (GMT+02:00);
Number of background scans: 8
Background gain: 8,0
Sample spacing:  1,000
Number of scan points: 12415
Resolution points: 8286
Number of FFT points: 65536
Apodization: N-B strong;
Phase correction: Mertz;
Laser frequency: 15798,00 cm-1
Number of rejected sample scans: 0
Number of rejected background scans: 0
Bench serial number: BER2010005;
##RESOLUTION= 4,000
##XUNITS=1/CM
##YUNITS=ABSORBANCE
##FIRSTX=400.156891
##LASTX=4000.123047
##FIRSTY=-0.011514
##MAXX=4000.123047
##MINX=400.156891
##MAXY=0.193633
##MINY=-0.011514
##XFACTOR=1.000000
##YFACTOR=1.000000E-009
##NPOINTS=7468
##DELTAX=0.482117
##ZPD=6100
##XYDATA=(X++(Y..Y))
400.157 -11514225 -10368394 -8672833 -6680463 -4771697 -3331540 -2608546 
403.532 -2700361 -3525625 -4878160 -6464899 -8001690 -9278013 -10185694 
406.907 -10719566 -10931283 -10870600 -10557096 -9984492 -9145826 -8061507 
410.281 -6803519 -5488059 -4252016 -3249395 -2609633 -2412700 -2659528 
413.656 -3256696 -4025494 -4754361 -5271608 -5459724 -5283458 -4776711 
417.031 -4036491 -3187004 -2331601 -1492440 -589650 477326 1711793 2973765 
420.888 4048540 4717709 4831375 4299178 3134232 1465037 -453798 -2306422 
424.745 -3800660 -4735810 -5057703 -4825014 -4173557 -3269588 -2303126 
428.120 -1464735 -908016 -736772 -961743 -1498219 -2166424 -2745734 -3035873 
431.977 -2912633 -2376749 -1545005 -609635 239194 833723 1072148 930604 
435.834 453178 -265984 -1119976 -2009495 -2865006 -3635548 -4275902 -4743906 
439.690 -4993638 -4984728 -4692546 -4118782 -3301025 -2317034 -1292489 
443.065 -379483 280470 586338 525658 180220 -274859 -628363 -668527 -267905 
447.404 554553 1616799 2626309 3294122 3396330 2856382 1753842 316578 
451.261 -1149487 -2326954 -2984311 -3066176 -2690680 -2086302 -1475170 
454.636 -1020917 -784369 -742296 -820220 -935922 -1037677 -1123281 -1232327 
458.493 -1415463 -1695072 -2049566 -2427264 -2762921 -2998856 -3086771 
461.868 -3001389 -2744681 -2353154 -1888207 -1423884 -1036949 -788040 
465.243 -716230 -833283 -1116539 -1509181 -1931191 -2309355 -2593791 
468.617 -2781490 -2910823 -3050548 -3267549 -3607520 -4074143 -4621182 
471.992 -5157154 -5570336 -5771337 -5716011 -5415713 -4917377 -4280397 
475.367 -3560330 -2804732 -2070242 -1419294 -918662 -622771 -546169 -652151 
479.224 -855770 -1057278 -1160062 -1107913 -900312 -589088 -252209 42281 
483.081 265086 440442 626917 882094 1217126 1572469 1827870 1854489 1549158 
487.420 886477 -74843 -1198625 -2317891 -3284287 -4005140 -4475009 -4759473 
491.277 -4962519 -5170873 -5427821 -5716697 -5983290 -6164009 -6223394 
494.652 -6165250 -6026688 -5855424 -5692171 -5555780 -5438619 -5314095 
498.027 -5149689 -4922160 -4622658 -4260022 -3857085 -3450125 -3081080 
501.401 -2787910 -2595471 -2504259 -2488842 -2504029 -2505610 -2460311 
504.776 -2360174 -2225204 -2101239 -2045773 -2108922 -2316869 -2656860 
508.151 -3080718 -3514877 -3887856 -4144349 -4252672 -4208441 -4029499 
511.526 -3750699 -3413241 -3063807 -2743034 -2481923 -2302302 -2213666 
514.901 -2211952 -2278340 -2382318 -2483834 -2541023 -2523992 -2416259 
518.276 -2220853 -1955370 -1647938 -1329586 -1027793 -766211 -560994 -423809 
522.132 -363791 -387660 -499407 -697077 -969115 -1289482 -1615655 -1896092 
525.989 -2075123 -2112879 -1996171 -1742101 -1388942 -982703 -566222 -168420 
529.846 194772 515009 784693 989846 1107856 1110879 973508 685653 260577 
534.185 -256249 -797267 -1281389 -1628793 -1784176 -1720584 -1443501 -985248 
538.042 -404676 223049 818618 1302096 1614171 1726563 1648295 1423083 
541.899 1120679 818784 573531 411355 319927 261771 191556 78700 -79911 
546.238 -260421 -426457 -549875 -624227 -667402 -712691 -792174 -919522 
550.095 -1087256 -1270553 -1443171 -1588420 -1706194 -1805921 -1896290 
553.470 -1972885 -2014080 -1986903 -1864585 -1638894 -1331040 -985810 
556.845 -663532 -420135 -290024 -280190 -369750 -520720 -683977 -812580 
560.702 -864765 -805403 -613639 -286978 152973 662125 1174797 1618561 
564.559 1933627 2080424 2051694 1868865 1571404 1199383 785224 351595 -84086 
568.898 -498381 -856795 -1120769 -1254067 -1240488 -1090661 -843634 -553714 
572.755 -273733 -43138 124701 238564 320093 390627 461802 532989 595329 
577.094 639394 661063 661029 640256 594632 513151 380611 187313 -63248 
581.433 -350317 -643780 -911521 -1132799 -1304514 -1438680 -1555769 -1672430 
585.290 -1793152 -1907077 -1993334 -2030965 -2011804 -1946134 -1862276 
588.665 -1793284 -1768799 -1798200 -1866301 -1936238 -1963188 -1913972 
592.039 -1781503 -1593306 -1402715 -1273790 -1253307 -1360041 -1577228 
595.414 -1861385 -2152610 -2397410 -2565201 -2652151 -2676882 -2665258 
598.789 -2635816 -2588126 -2505973 -2368840 -2170018 -1929971 -1696722 
602.164 -1528497 -1477812 -1565706 -1770251 -2026678 -2252136 -2374476 
605.539 -2356252 -2212315 -2001580 -1807109 -1698306 -1712069 -1836079 
608.913 -2021236 -2198007 -2308992 -2330052 -2275308 -2188348 -2122771 
612.288 -2121716 -2199128 -2339642 -2505413 -2654028 -2749060 -2771481 
615.663 -2721402 -2614672 -2474741 -2325109 -2187392 -2077860 -2008044 
619.038 -1984627 -2008341 -2072551 -2162929 -2262387 -2352462 -2420114 
622.413 -2459948 -2473094 -2464067 -2435501 -2385548 -2308729 -2201601 
625.788 -2070275 -1932643 -1817833 -1757117 -1768667 -1849442 -1970147 
629.162 -2083466 -2133289 -2077860 -1902525 -1627439 -1299195 -978471 
632.537 -721457 -562913 -512248 -554938 -664458 -810364 -967991 -1122620 
636.394 -1262524 -1377481 -1454531 -1480288 -1445350 -1350396 -1208603 
639.769 -1040652 -871180 -718579 -588823 -475676 -364520 -240056 -92135 
643.626 79727 267606 456727 631695 778319 885381 944684 953218 913670 836379 
648.447 742107 656948 604852 600605 641418 706627 762719 778120 731718 
652.786 623168 471156 308620 168353 72238 27932 30418 68460 134379 227922 
657.607 355740 527383 746256 1005754 1288005 1569409 1824176 2031087 2175254 
661.946 2245857 2237863 2151078 1994204 1785148 1548593 1313728 1105033 
665.803 942193 837175 794651 809522 870939 969821 1105896 1287773 1522025 
670.142 1806109 2124041 2446904 2732928 2939271 3023244 2960154 2751767 
673.999 2427611 2036280 1631565 1267335 985529 813074 760096 818054 962516 
678.338 1157654 1367338 1556806 1701514 1791536 1829600 1828535 1805111 
682.195 1774801 1747355 1726563 1710662 1694629 1671677 1633993 1574564 
686.052 1487346 1370330 1225134 1060157 888137 723321 579470 465849 387509 
690.391 347018 345692 384591 462764 577612 721695 885083 1058729 1237030 
694.730 1421288 1619027 1840580 2091711 2369105 2656545 2929797 3160865 
698.587 3329213 3429559 3474413 3490111 3506845 3551708 3638839 3768735 
702.444 3932236 4117207 4313601 4517617 4730638 4956802 5198307 5455380 
706.301 5727612 6018090 6336902 6702450 7136508 7658538 8279224 8994862 
710.158 9787215 10627192 11484650 12333340 13157939 13953516 14722891 
713.533 15473408 16213357 16954674 17713166 18510190 19372838 20326360 
716.908 21389796 22567304 23845070 25186290 26535086 27826042 28986230 
720.282 29949332 30664456 31098482 31245402 31122828 30769188 30230864 
723.657 29557308 28792734 27970836 27121322 26268928 25434186 24634324 
727.032 23877940 23163618 22480060 21811302 21142808 20466866 19786044 
730.407 19111552 18458156 17838330 17260932 16730441 16250230 15826592 
733.782 15468154 15183778 14979012 14850110 14783530 14755421 14738522 
737.156 14703902 14627921 14496074 14301357 14044710 13733665 13382998 
740.531 13012402 12646351 12310399 12023892 11796267 11623108 11488937 
743.906 11369773 11241665 11087524 10899764 10681931 10445605 10206763 
747.281 9979952 9776913 9605099 9466776 9360760 9282965 9228809 9194254 
751.138 9178280 9181563 9205286 9247966 9303174 9357374 9394955 9401727 
754.995 9371627 9310113 9233513 9162984 9113512 9087391 9070169 9036676 
758.852 8959819 8824440 8635629 8419231 8211381 8048320 7952234 7925002 
762.709 7951256 8007176 8071611 8132004 8186767 8239915 8294354 8347651 
766.566 8390821 8413522 8410144 8383321 8343395 8301649 8265040 8230798 
770.423 8189164 8127446 8039173 7928646 7810691 7703494 7620061 7560885 
774.279 7512741 7452637 7356514 7210381 7013953 6781297 6533630 6294912 
778.136 6082331 5905590 5767399 5665773 5597063 5556318 5537860 5532256 
781.993 5526081 5503430 5447595 5345978 5194718 4999903 4776599 4545741 
785.850 4330568 4147848 4005600 3899805 3816666 3736583 3641446 3522745 
789.707 3383674 3239773 3111338 3017905 2968428 2959153 2975133 2998721 
793.564 3016003 3022810 3025513 3035055 3060147 3101293 3149717 3190738 
797.421 3212801 3211800 3194509 3175250 3168541 3181492 3210765 3244747 
801.278 3270686 3279900 3273223 3259302 3249755 3252225 3267248 3287646 
805.135 3303471 3306075 3291652 3261071 3217074 3161766 3096320 3024478 
808.992 2956118 2908748 2907114 2973799 3120015 3338295 3601786 3869783 
812.849 4097639 4253636 4324912 4321331 4268058 4197895 4138114 4104296 
816.706 4098843 4114030 4135538 4146209 4131791 4081217 3989950 3862162 
820.563 3711853 3561028 3432832 3346509 3308212 3310582 3334188 3358463 
824.420 3370851 3372220 3376428 3403209 3466096 3564469 3680574 3787118 
828.277 3859587 3887469 3881184 3868379 3884794 3957447 4095131 4284153 
832.133 4495186 4690578 4836870 4915413 4920239 4856974 4738075 4579694 
835.990 4399380 4217133 4055263 3933373 3865404 3854272 3891915 3961259 
839.847 4042922 4123195 4196590 4265582 4334885 4405505 4470646 4517751 
843.704 4534023 4515240 4470244 4419530 4386527 4387263 4421170 4469809 
847.561 4500576 4480455 4389707 4228810 4019779 3799117 3607165 3473411 
851.418 3411692 3417068 3471574 3548868 3624739 3682345 3714125 3721912 
855.275 3713925 3702596 3699889 3714025 3747779 3797680 3854707 3907094 
859.132 3945678 3965372 3967412 3958952 3948620 3943471 3945443 3951696 
862.989 3956010 3952833 3940295 3921102 3902380 3891414 3892283 3903918 
866.846 3919598 3930531 3928993 3913513 3889775 3870720 3871990 3906692 
870.703 3980253 4087237 4210006 4323942 4405271 4434292 4402593 4315007 
874.560 4186754 4038607 3889575 3754597 3640644 3549971 3483130 3441481 
878.417 3429692 3452102 3510553 3600049 3708878 3821078 3920200 3995802 
882.274 4047236 4083692 4121321 4178123 4268393 4398242 4564827 4756566 
886.131 4956500 5144288 5301064 5412602 5471552 5479102 5445616 5389017 
889.987 5328233 5280134 5253069 5245255 5246697 5244987 5232511 5209607 
893.844 5185329 5170743 5173660 5191700 5210144 5206690 5161489 5063592 
897.701 4917424 4740319 4557527 4391113 4253569 4145607 4059744 3986338 
901.558 3920467 3863933 3825490 3815395 3840633 3902513 3996471 4115568 
905.415 4252632 4402191 4560373 4721427 4876777 5013813 5118774 5180836 
909.272 5197099 5173694 5124640 5069223 5026249 5009657 5027925 5082733 
913.129 5170777 5284059 5412099 5541720 5658758 5750477 5808029 5829051 
916.986 5818708 5788889 5754808 5729358 5721065 5731440 5755782 5785800 
920.843 5813335 5832644 5843088 5848059 5855279 5873918 5912375 5975962 
924.700 6064791 6172694 6287449 6394802 6481732 6540021 6569589 6576720 
928.557 6571708 6562020 6549339 6527508 6486676 6418004 6321067 6207111 
932.414 6098427 6020610 5994607 6029580 6119529 6244454 6376880 6491721 
936.271 6570463 6607737 6609251 6590008 6569185 6565518 6595929 6670854 
940.128 6793817 6959506 7155101 7361569 7557514 7726327 7857687 7951863 
943.985 8017166 8066919 8114550 8168062 8231777 8305398 8388016 8479300 
947.841 8580505 8691706 8809968 8928533 9038198 9130836 9204203 9261809 
951.698 9311535 9359642 9404469 9434097 9427833 9363908 9230400 9033259 
955.555 8799789 8569690 8388996 8292530 8293881 8382848 8529376 8694612 
959.412 8840603 8944700 9001527 9022467 9027575 9039450 9075312 9142139 
963.269 9238218 9355207 9482726 9611332 9735029 9851677 9960966 10062788 
967.126 10156019 10237972 10304639 10351939 10377221 10378747 10356520 
970.501 10311051 10242586 10152186 10042171 9917573 9787622 9663233 9555204 
974.358 9470026 9407382 9360217 9317832 9271355 9217877 9162747 9116320 
978.215 9089455 9085902 9098725 9110602 9099842 9047299 8943143 8790255 
982.072 8602710 8399975 8199969 8016762 7859340 7733107 7643160 7593591 
985.929 7586308 7616453 7673005 7738267 7793824 7827963 7838456 7833902 
989.786 7827188 7829414 7842269 7856405 7855494 7825197 7761406 7673444 
993.643 7580711 7506067 7464839 7458603 7475660 7497875 7509371 7503673 
997.500 7486244 7469626 7466525 7482199 7510921 7538970 7551243 7536476 
1001.356 7491874 7422638 7338349 7247676 7156550 7068204 6985197 6911025 
1005.213 6850566 6807280 6781095 6765479 6749999 6722337 6673041 6599360 
1009.070 6503661 6391204 6265094 6125074 5968438 5794765 5610388 5430887 
1012.927 5278290 5174599 5132318 5148948 5205952 5275909 5328870 5344535 
1016.784 5317700 5258066 5183854 5115421 5068486 5048741 5055211 5081460 
1020.641 5121288 5170743 5229426 5299353 5383985 5485276 5602702 5731205 
1024.498 5861794 5980598 6070907 6117849 6111297 6050982 5947275 5820454 
1028.356 5693234 5583402 5498430 5433302 5373317 5300091 5201291 5074487 
1032.213 4929254 4782897 4655645 4564157 4516311 4512126 4544034 4600690 
1036.070 4668540 4735663 4790904 4825043 4832347 4809162 4755427 4673898 
1039.928 4568376 4443162 4302290 4151561 3999279 3858183 3745105 3675996 
1043.785 3662196 3704601 3792365 3903115 4008543 4084528 4116538 4105901 
1047.643 4068741 4033391 4029678 4080147 4193479 4360086 4551601 4726351 
1051.500 4842868 4866188 4780954 4596906 4349878 4093224 3882788 3764991 
1055.358 3759978 3858484 4024461 4211110 4371800 4475634 4515106 4502819 
1059.215 4463817 4421672 4393824 4385289 4393053 4410225 4432284 4457490 
1063.072 4486380 4518052 4548152 4569749 4576613 4567371 4547851 4528431 
1066.930 4520864 4530909 4555686 4583813 4601225 4597509 4571959 4534592 
1070.787 4503589 4497495 4526824 4590979 4677449 4767051 4840388 4885791 
1074.645 4903149 4903483 4903550 4919334 4959382 5019880 5083571 5123534 
1078.502 5113711 5035098 4886293 4685320 4470178 4285826 4172135 4151795 
1082.359 4221482 4353393 4503957 4629958 4698449 4697042 4633140 4529000 
1086.217 4409856 4295765 4200103 4128580 4084160 4069778 4088508 4139653 
1090.074 4214389 4294794 4355300 4371198 4328460 4229177 4093793 3953836 
1093.932 3843909 3788388 3796075 3857849 3952198 4050647 4124900 4155275 
1097.789 4129651 4046400 3913279 3747846 3575460 3425584 3328445 3305240 
1101.647 3364373 3497626 3683214 3889207 4082287 4237341 4339035 4384787 
1105.504 4381239 4341545 4280573 4212549 4150926 4105099 4080347 4076100 
1109.361 4086769 4103861 4119749 4131958 4145071 4169091 4214490 4286864 
1113.219 4381707 4484774 4576078 4638699 4664420 4658291 4634848 4612444 
1117.076 4605244 4617065 4642584 4672023 4698215 4721461 4750101 4796867 
1120.934 4871851 4976307 5101306 5230030 5345675 5436389 5499303 5539303 
1124.791 5564742 5581624 5590921 5589008 5572562 5540981 5500947 5463633 
1128.649 5442026 5444810 5472895 5519101 5570682 5615758 5646304 5662920 
1132.506 5672924 5689407 5724490 5787680 5881475 6000956 6133845 6262841 
1136.363 6371029 6443561 6474434 6467943 6440670 6416154 6419181 6469490 
1140.221 6574197 6726106 6905369 7087434 7249125 7376027 7466356 7527912 
1144.078 7573799 7616655 7665417 7723932 7793351 7874388 7969614 8083223 
1147.936 8218371 8374301 8543872 8713813 8868231 8990804 9071083 9106000 
1151.793 9100350 9064688 9012318 8956674 8907394 8869753 8844052 8827179 
1155.651 8813687 8798472 8778894 8754721 8729263 8707425 8694579 8693801 
1159.508 8704687 8722773 8740893 8750934 8746167 8723415 8684471 8636440 
1163.365 8589360 8556173 8548536 8574456 8635866 8727370 8836004 8942299 
1167.223 9026087 9068207 9055621 8985289 8863328 8703909 8524409 8341909 
1171.080 8168737 8010012 7865009 7727879 7591096 7448154 7296060 7136777 
1174.938 6976610 6824614 6691615 6586577 6515063 6477898 6471004 6486508 
1178.795 6513146 6539718 6555696 6553039 6528282 6481934 6418710 6346754 
1182.652 6276389 6217900 6179450 6165469 6175551 6204321 6242942 6281767 
1186.510 6312360 6328834 6329405 6314780 6287348 6250202 6206069 6158176 
1190.367 6110020 6065968 6030655 6007071 5996387 5996387 6002300 6008482 
1194.225 6010699 6006567 5996287 5981405 5963231 5941296 5914055 5879628 
1198.082 5837749 5790367 5741646 5695215 5652984 5613107 5571253 5522725 
1201.940 5466989 5409314 5361710 5339604 5356142 5418708 5524168 5659798 
1205.797 5805947 5942874 6053267 6127930 6165234 6170913 6154177 6125477 
1209.654 6095805 6074267 6068790 6085019 6124402 6184323 6257295 6333204 
1213.512 6401325 6453550 6486743 6503359 6510590 6517182 6531881 6560237 
1217.369 6604070 6662409 6732163 6810040 6893115 6980516 7072650 7170731 
1221.227 7276921 7391395 7513483 7639181 7762149 7874692 7970086 8044304 
1225.084 8098616 8139431 8176401 8218574 8271795 8335491 8403455 8466056 
1228.942 8514103 8542048 8549888 8541879 8524307 8501939 8476564 8445987 
1232.799 8406022 8352819 8284762 8202940 8110567 8011699 7909986 7808026 
1236.656 7708350 7612541 7522788 7440401 7365444 7296161 7229382 7162242 
1240.514 7092823 7022371 6953951 6893216 6845483 6814012 6799707 6800784 
1244.371 6812598 6829696 6846190 6856423 6855581 6840737 6811588 6771369 
1248.229 6726409 6685895 6658237 6649691 6661198 6688956 6724356 6757234 
1252.086 6778942 6783418 6768610 6735529 6687880 6630749 6570901 6517552 
1255.943 6481262 6472450 6498818 6561549 6652349 6754105 6846089 6906245 
1259.801 6920384 6886080 6814113 6723717 6636973 6573760 6545571 6555528 
1263.658 6599562 6668936 6752556 6839020 6919543 6987049 7039074 7077162 
1267.516 7106363 7133207 7162613 7195659 7227832 7250574 7253943 7231808 
1271.373 7184778 7121283 7054598 6999002 6964658 6954489 6965398 6991358 
1275.231 7026176 7067531 7116231 7174841 7243768 7318973 7390957 7447480 
1279.088 7477615 7475154 7441345 7384755 7319142 7258626 7215906 7200207 
1282.945 7216142 7264825 7344685 7450749 7576294 7712330 7849488 7979333 
1286.803 8095713 8196525 8283344 8359000 8426392 8486159 8536945 8575977 
1290.660 8601797 8616026 8623563 8631978 8648608 8679401 8727471 8793062 
1294.518 8874589 8970846 9080759 9203459 9337637 9479238 9621562 9756309 
1298.375 9874252 9969001 10037695 10082016 10107689 10121899 10132344 
1301.750 10144080 10159037 10175285 10188615 10193262 10184680 10161242 
1305.126 10125969 10085509 10048478 10023453 10014943 10021860 10036848 
1308.501 10049664 10048885 10025895 9977918 9906183 9815006 9709073 9591414 
1312.358 9463965 9327785 9186978 9048821 8924101 8824981 8759927 8732069 
1316.216 8736633 8761347 8789748 8805674 8798978 8767331 8717735 8662500 
1320.073 8615316 8586115 8578748 8591218 8618188 8652597 8688630 8722603 
1323.931 8753301 8780450 8804388 8825082 8842294 8855821 8866811 8877870 
1327.788 8893494 8919400 8961003 9022771 9107354 9214357 9340751 9481405 
1331.645 9629557 9777828 9920929 10055260 10180542 10300737 10421644 
1335.021 10551004 10696228 10862392 11051733 11262476 11489209 11723890 
1338.396 11957063 12178231 12378577 12551970 12696533 12813400 12906507 
1341.771 12980480 13039989 13090252 13136491 13184340 13238684 13302226 
1345.146 13374661 13452303 13530608 13606774 13682097 13763351 13861827 
1348.522 13988726 14150439 14344129 14556545 14768173 14956549 15105208 
1351.897 15207523 15268642 15302071 15326372 15358878 15410338 15485391 
1355.272 15584292 15705924 15852882 16032755 16256422 16536750 16884256 
1358.647 17306514 17808090 18395064 19076650 19867720 20785482 21840640 
1362.023 23023844 24296822 25592592 26836088 27963840 28934694 29727374 
1365.398 30328278 30722634 30898812 30856584 30623352 30259210 29860556 
1368.773 29534716 29370612 29429076 29733972 30289302 31098838 32181844 
1372.148 33575660 35319804 37425168 39831328 42383596 44867468 47060616 
1375.524 48808264 50040984 50739312 50899956 50511868 49562288 48066320 
1378.899 46092384 43769000 41247404 38679408 36181092 33821228 31639844 
1382.274 29654358 27868648 26274980 24852256 23566282 22374936 21238344 
1385.649 20127658 19035418 17978898 16991332 16105648 15338969 14687005 
1389.025 14133563 13661342 13256242 12907667 12604394 12330681 12067224 
1392.400 11792590 11489856 11152859 10791292 10429009 10093953 9806228 
1395.775 9569802 9376672 9215982 9083466 8981467 8914462 8881048 8868536 
1399.632 8854907 8820112 8753537 8657700 8544210 8428149 8321474 8231608 
1403.490 8160499 8106921 8069788 8050008 8049637 8068674 8101992 8140241 
1407.347 8171945 8189197 8190616 8182377 8174679 8178022 8197639 8231237 
1411.205 8270477 8306209 8334512 8357683 8382780 8416528 8461900 8515961 
1415.062 8572394 8625151 8672877 8720778 8779841 8861975 8975413 9117979 
1418.920 9276940 9436874 9589720 9736994 9885912 10042476 10210156 10389607 
1422.777 10582577 10793501 11029336 11295802 11592990 11914083 12249524 
1426.152 12592899 12946342 13322999 13744746 14235786 14812705 15475948 
1429.527 16207097 16977000 17758416 18537334 19313806 20095522 20888450 
1432.903 21692268 22503230 23320848 24152724 25021750 25963744 27011824 
1436.278 28165488 29374972 30559606 31653136 32637000 33534248 34385580 
1439.653 35233516 36109900 37033232 38005468 39017764 40055936 41105332 
1443.028 42156836 43205912 44251000 45294048 46340744 47404608 48506800 
1446.404 49675096 50931700 52281408 53704540 55163352 56624772 58082764 
1449.779 59561852 61108616 62768252 64563288 66475004 68444752 70398408 
1453.154 72263056 74002560 75619944 77142272 78601112 80002872 81303160 
1456.529 82400120 83197016 83688776 83964184 84139816 84278272 84388752 
1459.905 84459344 84481240 84455320 84386544 84273720 84097312 83810928 
1463.280 83347208 82628432 81599488 80256304 78636488 76785264 74719648 
1466.655 72418632 69857832 67037912 64004356 60823420 57571668 54300452 
1470.030 50995860 47596896 44016440 40218168 36307912 32566316 29329064 
1473.406 26782024 24888850 23467328 22310994 21280760 20310768 19395706 
1476.781 18557286 17812956 17157820 16568005 16013641 15473133 14939505 
1480.156 14422012 13937948 13503570 13126348 12801354 12516331 12258931 
1483.531 12022087 11802906 11599115 11405591 11212594 11007890 10781103 
1486.907 10527003 10247336 9947982 9634503 9310148 8977070 8642895 8324852 
1490.764 8043122 7812007 7633515 7499088 7393855 7302597 7212638 7116298 
1494.621 7010889 6898569 6783586 6670383 6561112 6457282 6362892 6285801 
1498.479 6235412 6217665 6228858 6256085 6279448 6281566 6251950 6191583 
1502.336 6110322 6024742 5952347 5908143 5904617 5949559 6046346 6183954 
1506.194 6328867 6419315 6400182 6270540 6076552 5868679 5679302 5528867 
1510.051 5429813 5388178 5402537 5461788 5545780 5631266 5701425 5748193 
1513.909 5774014 5786438 5794127 5800809 5803261 5791945 5758099 5700553 
1517.766 5627137 5548633 5472626 5399216 5321256 5226911 5105028 4954791 
1521.623 4790837 4636288 4505262 4398543 4307678 4223590 4140790 4058975 
1525.481 3980653 3909668 3846483 3787619 3727393 3661962 3590761 3516700 
1529.338 3442717 3370350 3296560 3215405 3118980 3001957 2866254 2726692 
1533.196 2608708 2537014 2518050 2537480 2572276 2604242 2624809 2631209 
1537.053 2623909 2602175 2561311 2492490 2386830 2249786 2113586 2026959 
1540.911 2022365 2093908 2208955 2329695 2429244 2492856 2519783 2519850 
1544.768 2507686 2494256 2483692 2472795 2455801 2428211 2389062 2342321 
1548.625 2295685 2258679 2238096 2235132 2244657 2259312 2274201 2288823 
1552.483 2306144 2330628 2365308 2410952 2465497 2527082 2595975 2675814 
1556.340 2772875 2891737 3029283 3164102 3241476 3196912 3029950 2823164 
1560.198 2651444 2535347 2463465 2419781 2394459 2383331 2386097 2403422 
1564.055 2433275 2468096 2495356 2503687 2486758 2445604 2387996 2324965 
1567.912 2268039 2225507 2200030 2186310 2174954 2159303 2139824 2122842 
1571.770 2115950 2123342 2145684 2179550 2218047 2251452 2267439 2255049 
1575.627 2207523 2130034 2038710 1953896 1888532 1845671 1821714 1810102 
1579.485 1802416 1789507 1762724 1715652 1646998 1561595 1470157 1384922 
1583.342 1317184 1273516 1254741 1257067 1274048 1299604 1329648 1361987 
1587.200 1395127 1426341 1450509 1461946 1455795 1432358 1396988 1360259 
1591.057 1333603 1326922 1344670 1385221 1440735 1501244 1557637 1603662 
1594.914 1637319 1659969 1674604 1684650 1692466 1699784 1707136 1715020 
1598.772 1723702 1733615 1745126 1758899 1775866 1797325 1824642 1858649 
1602.629 1898882 1943378 1988312 2028890 2060715 2079692 2083021 2069005 
1606.487 2036779 1987014 1921945 1846237 1765785 1686645 1613939 1550488 
1610.344 1497753 1456360 1426075 1406761 1398152 1399315 1408822 1424446 
1614.202 1443029 1459685 1468395 1462311 1435882 1388479 1325327 1255705 
1618.059 1187721 1126659 1074805 1033287 1002234 981046 967098 955243 937345 
1622.399 905369 853974 784726 706959 631828 566829 514976 474971 444787 
1626.738 423427 412615 415931 437556 478719 535710 601036 665609 720799 
1631.078 760296 781473 784726 772311 747218 711971 667301 611156 540984 
1635.417 457225 366816 281299 210982 161260 132954 124867 135837 163845 
1639.757 204916 252952 300629 340154 366285 377693 376599 368573 359354 
1644.097 354679 358492 371425 390792 409298 417756 408701 381374 341481 
1648.436 296916 254212 219038 197258 195998 226231 300994 431354 606876 
1652.776 772876 844047 786153 651871 512388 406181 340685 310079 303647 
1657.115 309515 317606 320192 314721 301889 285245 267739 251096 233856 
1661.455 213104 185424 150255 111377 75850 49836 36382 34924 42645 56000 
1666.277 71674 87316 100573 110217 115918 118304 119431 121585 126225 132821 
1671.099 139350 143295 143162 137826 128247 115586 102992 93713 90962 96331 
1675.920 109090 127187 148333 170839 192882 210916 219966 213269 185888 
1680.260 136467 69587 -6262 -79116 -135066 -158749 -135066 -59703 47781 
1684.599 147405 211877 240818 250001 255008 266181 289555 326691 375902 
1688.939 433377 494143 553326 606743 652601 690299 720965 746919 771714 
1693.279 799962 836445 885547 949631 1024884 1101379 1168119 1220515 1263780 
1697.618 1308178 1365411 1445223 1552616 1681323 1810268 1911628 1971969 
1701.476 1999197 2011014 2022232 2040541 2069937 2110956 2161201 2214816 
1705.333 2263409 2298549 2315438 2315205 2302913 2286158 2270803 2260711 
1709.191 2256648 2255948 2252917 2241593 2217015 2176386 2119446 2047832 
1713.048 1964181 1871194 1771807 1669116 1565918 1465170 1369034 1278435 
1716.905 1192705 1111012 1033187 960822 897102 844844 806336 781904 771282 
1721.245 772676 783431 799066 814933 827648 836777 845143 858489 882825 
1725.585 921639 975301 1039531 1107690 1171342 1222576 1256635 1273483 
1729.442 1278534 1281126 1293256 1324596 1381266 1465237 1574065 1698920 
1733.299 1821348 1916720 1965379 1968641 1944710 1913358 1885271 1862975 
1737.157 1845006 1829001 1813329 1798224 1785448 1777030 1773038 1770875 
1741.014 1766151 1754208 1731420 1695560 1646233 1583775 1508858 1422285 
1744.872 1324097 1214069 1092543 960557 820377 675697 531032 392583 266711 
1749.211 160995 82345 35753 21007 31611 55503 79429 94044 95701 86223 70448 
1754.515 54608 43275 38901 39365 38503 28330 1590 -44264 -108235 -186537 
1759.337 -275190 -369121 -462636 -548750 -619826 -670446 -699327 -710210 
1763.194 -709118 -700947 -688377 -671902 -650662 -624789 -596533 -571583 
1767.052 -558214 -563476 -590146 -633756 -683679 -725691 -747059 -739088 
1770.909 -699856 -636336 -565693 -509666 -481634 -481733 -498778 -519595 
1774.767 -533858 -537995 -533031 -524857 -520422 -525486 -543521 -574495 
1778.624 -614599 -657577 -696250 -723276 -734556 -730157 -714113 -692611 
1782.482 -671372 -654831 -644971 -642060 -644277 -649239 -654434 -659529 
1786.339 -666112 -678088 -700517 -737897 -793133 -867046 -956718 -1054700 
1790.196 -1150280 -1227999 -1271114 -1267810 -1217987 -1134914 -1038999 
1793.572 -950006 -879943 -833779 -812282 -813771 -835631 -873594 -921506 
1797.429 -970867 -1011893 -1035131 -1034569 -1009810 -968024 -923622 -892409 
1801.286 -885498 -905073 -943823 -989050 -1027661 -1052452 -1062401 -1063327 
1805.144 -1063591 -1071590 -1091156 -1121529 -1156493 -1188183 -1209661 
1808.519 -1216864 -1209429 -1190463 -1164027 -1133757 -1102790 -1073209 
1811.894 -1046899 -1025644 -1010439 -1001050 -995926 -992257 -987199 -979496 
1815.752 -970504 -964850 -969016 -989480 -1030702 -1093073 -1173313 -1265465 
1819.609 -1361990 -1455555 -1538567 -1604431 -1647344 -1663155 -1649853 
1822.984 -1610340 -1552401 -1488181 -1433164 -1399973 -1392872 -1406843 
1826.360 -1429598 -1448125 -1451394 -1434155 -1396737 -1345937 -1292324 
1829.735 -1249276 -1225884 -1223505 -1236159 -1253868 -1267810 -1271114 
1833.110 -1259815 -1233582 -1195519 -1151371 -1108640 -1074168 -1052088 
1836.485 -1042833 -1043660 -1050667 -1060484 -1072879 -1090396 -1117398 
1839.861 -1157319 -1210487 -1273625 -1339232 -1396770 -1434519 -1442874 
1843.236 -1417676 -1363741 -1293216 -1222481 -1163400 -1119777 -1087256 
1846.611 -1056782 -1018934 -965975 -895748 -812481 -728404 -658569 -619164 
1850.469 -620918 -665417 -744976 -844923 -946402 -1032355 -1093900 -1132699 
1854.326 -1159500 -1188249 -1229816 -1287005 -1354261 -1419756 -1472792 
1857.701 -1509313 -1534176 -1558443 -1593735 -1645859 -1710782 -1775828 
1861.077 -1823145 -1838884 -1816810 -1760054 -1678305 -1584755 -1490690 
1864.452 -1404069 -1329025 -1267117 -1218351 -1182268 -1157319 -1140697 
1867.827 -1126949 -1112275 -1095651 -1082232 -1082067 -1106095 -1159401 
1871.202 -1240455 -1339595 -1442246 -1532327 -1596310 -1626944 -1624931 
1874.578 -1596805 -1551377 -1497459 -1442081 -1390164 -1346300 -1316009 
1877.953 -1304282 -1314457 -1346300 -1392542 -1440859 -1476854 -1488841 
1881.328 -1471901 -1430126 -1375004 -1322154 -1286443 -1277986 -1299327 
1884.703 -1345640 -1405522 -1465825 -1515422 -1546557 -1557419 -1551212 
1888.078 -1536520 -1521893 -1515092 -1516247 -1517469 -1504988 -1466023 
1891.454 -1395118 -1297675 -1189472 -1093966 -1037247 -1039164 -1107648 
1894.829 -1233615 -1395283 -1562834 -1711376 -1827930 -1910046 -1963188 
1898.204 -1994423 -2009891 -2011738 -2001349 -1979811 -1949037 -1911497 
1901.579 -1868610 -1819021 -1759823 -1687745 -1603209 -1511790 -1423521 
1904.955 -1349703 -1298666 -1271973 -1263053 -1260179 -1252844 -1236424 
1908.330 -1216732 -1207414 -1224860 -1279407 -1370413 -1484086 -1600634 
1911.705 -1701145 -1772759 -1811498 -1820143 -1804700 -1770317 -1719924 
1915.080 -1655398 -1578516 -1495181 -1415925 -1353832 -1321526 -1323607 
1918.456 -1354195 -1398949 -1443534 -1477647 -1498285 -1507893 -1510007 
1921.831 -1506374 -1495247 -1472792 -1437491 -1393170 -1350958 -1323871 
1925.206 -1323739 -1355021 -1411169 -1477482 -1534044 -1565409 -1564881 
1928.581 -1538996 -1502313 -1474279 -1469292 -1490690 -1530478 -1574224 
1931.957 -1606610 -1619088 -1612023 -1595848 -1584524 -1590202 -1619154 
1935.332 -1670714 -1740022 -1821463 -1911300 -2009429 -2113934 -2219666 
1938.707 -2314859 -2380473 -2394972 -2338588 -2202590 -1994852 -1745963 
1942.082 -1502412 -1309667 -1200541 -1179790 -1226644 -1301673 -1364368 
1945.458 -1379298 -1326250 -1203944 -1028719 -830207 -642953 -501856 -432713 
1949.315 -446053 -537465 -689104 -873925 -1061476 -1225719 -1349009 -1424149 
1953.172 -1452418 -1443369 -1409023 -1360074 -1307388 -1260939 -1227899 
1956.548 -1213692 -1218384 -1232856 -1241677 -1227899 -1180451 -1106459 
1959.923 -1033313 -1008885 -1085538 -1299492 -1656586 -2125046 -2642008 
1963.298 -3126611 -3509947 -3751291 -3848710 -3831501 -3747415 -3635745 
1966.673 -3513760 -3371685 -3185985 -2933828 -2610489 -2230281 -1821660 
1970.049 -1417279 -1044056 -723772 -472896 -306679 -241910 -293534 -468990 
1973.906 -759926 -1135112 -1542199 -1912388 -2185842 -2328767 -2343762 
1977.281 -2265123 -2143081 -2024798 -1935578 -1878673 -1839346 -1796913 
1980.657 -1737250 -1661075 -1580992 -1519087 -1497393 -1528827 -1612354 
1984.032 -1733026 -1864024 -1974732 -2040661 -2044586 -1985979 -1879497 
1987.407 -1754972 -1647146 -1588915 -1605058 -1707944 -1896356 -2156335 
1990.782 -2461596 -2772897 -3039624 -3211475 -3240746 -3100392 -2789720 
1994.158 -2343037 -1824597 -1317826 -910793 -667700 -615558 -733034 -959263 
1998.015 -1203317 -1374277 -1410806 -1290374 -1030966 -678452 -292375 74624 
2001.872 380910 595860 702413 689735 554653 306067 -29653 -405172 -759000 
2006.212 -1024917 -1156592 -1139970 -996389 -772793 -522937 -294792 -116019 
2010.069 3379 64682 67466 3578 -145467 -398816 -766839 -1235598 -1769162 
2014.409 -2303982 -2770263 -3099734 -3239529 -3165591 -2888771 -2457938 
2017.784 -1944683 -1432702 -993182 -668627 -476603 -412323 -456446 -582767 
2021.642 -770775 -1001811 -1261401 -1533450 -1793284 -2005933 -2134278 
2025.017 -2145093 -2027206 -1795197 -1491516 -1169348 -880307 -661878 
2028.392 -521614 -443934 -394513 -342404 -270322 -189121 -131853 -151263 
2032.250 -298302 -602919 -1058798 -1620474 -2208260 -2721435 -3070223 
2035.625 -3186906 -3049001 -2688013 -2182546 -1636946 -1147769 -790157 
2039.000 -594613 -551728 -616683 -733001 -847338 -926928 -964421 -974140 
2042.858 -979099 -999199 -1044585 -1113432 -1195419 -1277028 -1346631 
2046.233 -1398850 -1431678 -1448323 -1454267 -1457470 -1466122 -1486728 
2049.608 -1521431 -1567456 -1617866 -1662693 -1696656 -1720584 -1742266 
2052.983 -1775729 -1834133 -1921559 -2029152 -2133651 -2205557 -2216600 
2056.358 -2153962 -2023149 -1851256 -1676655 -1538468 -1467410 -1475930 
2059.734 -1554250 -1674542 -1800939 -1895465 -1928552 -1885733 -1767479 
2063.109 -1592315 -1390329 -1201367 -1062500 -1001050 -1026967 -1129527 
2066.484 -1278812 -1432636 -1550189 -1599908 -1568644 -1464900 -1315547 
2069.859 -1160161 -1037247 -980653 -1006934 -1114424 -1283041 -1482501 
2073.235 -1675632 -1826544 -1910739 -1915258 -1843668 -1712234 -1546458 
2076.610 -1373187 -1215872 -1091751 -1008786 -968652 -968090 -1001711 
2079.985 -1064252 -1150181 -1253769 -1368101 -1485110 -1596343 -1694709 
2083.360 -1775860 -1838554 -1883159 -1910541 -1919250 -1906087 -1866499 
2086.736 -1796022 -1693092 -1560193 -1403970 -1235895 -1068912 -916546 
2090.111 -789528 -695324 -635608 -607650 -605003 -617510 -634980 -647023 
2093.968 -646162 -627502 -591933 -544415 -494310 -454460 -438539 -458498 
2097.826 -523103 -635608 -791347 -979198 -1183491 -1385012 -1565343 -1710221 
2101.683 -1810673 -1862903 -1867423 -1825818 -1739824 -1611825 -1446837 
2105.058 -1255223 -1053576 -864831 -710144 -607385 -564369 -576216 -627734 
2108.916 -698830 -770411 -829744 -874321 -908413 -940749 -978108 -1021909 
2112.773 -1067062 -1104244 -1121959 -1110623 -1065409 -986835 -880373 
2116.148 -756718 -630215 -516947 -432647 -391434 -400372 -460683 -564204 
2120.006 -696448 -838772 -972851 -1084348 -1164457 -1209991 -1221754 
2123.381 -1202920 -1157980 -1092412 -1014637 -934136 -861623 -805866 -772065 
2127.239 -759463 -762142 -772991 -786618 -802658 -828124 -873858 -950535 
2131.096 -1062566 -1204407 -1360074 -1503997 -1609284 -1653649 -1625756 
2134.471 -1528827 -1377943 -1200938 -1028586 -887912 -798160 -765119 -782285 
2138.329 -833779 -903916 -980752 -1063062 -1161285 -1292257 -1471208 
2141.704 -1701211 -1967179 -2238027 -2473654 -2636837 -2709153 -2694895 
2145.079 -2619975 -2517503 -2418499 -2337369 -2270199 -2202128 -2117528 
2148.454 -2013651 -1903085 -1809848 -1756589 -1752365 -1782427 -1809419 
2151.830 -1780315 -1649985 -1391122 -1005711 -526247 -11431 470725 857659 
2155.687 1098622 1168418 1064575 808327 439679 13750 -411032 -791447 
2159.544 -1110491 -1383063 -1643350 -1932478 -2276066 -2669209 -3076540 
2162.920 -3441808 -3700470 -3801646 -3725175 -3484573 -3126512 -2714915 
2166.295 -2322439 -2009825 -1813346 -1743784 -1786684 -1908661 -2064043 
2169.670 -2207007 -2298841 -2314925 -2251344 -2123760 -1961604 -1795527 
2173.045 -1652196 -1541935 -1457866 -1377844 -1279407 -1147571 -985909 
2176.421 -817905 -681363 -616484 -650199 -787246 -1007662 -1273394 -1537114 
2180.278 -1757612 -1909914 -1990927 -2015762 -2011639 -2007154 -2018433 
2183.653 -2045872 -2072715 -2074826 -2026579 -1915258 -1744577 -1537610 
2187.029 -1328199 -1147934 -1019727 -946535 -912645 -890293 -854216 -790917 
2190.886 -708490 -631870 -595374 -626146 -731546 -893864 -1075986 -1235598 
2194.743 -1339132 -1375829 -1359480 -1319577 -1285816 -1275541 -1284362 
2198.119 -1289482 -1260509 -1176221 -1037974 -872007 -722085 -633491 -638288 
2201.976 -741172 -920547 -1135475 -1345276 -1516908 -1637111 -1711112 
2205.351 -1755764 -1787113 -1812884 -1828457 -1820737 -1774838 -1681969 
2208.727 -1543949 -1373418 -1190727 -1015199 -864765 -750599 -677890 -645633 
2212.584 -648048 -674151 -708754 -735581 -739749 -713452 -660455 -598187 
2216.441 -555401 -562351 -644608 -811786 -1055394 -1345276 -1640973 -1899687 
2220.299 -2085279 -2177699 -2174864 -2089434 -1943759 -1765103 -1581685 
2223.674 -1416388 -1288293 -1208339 -1177411 -1186233 -1216368 -1243957 
2227.049 -1243759 -1199384 -1106194 -974140 -824155 -682654 -572278 -505099 
2230.907 -480078 -485142 -503544 -520157 -528166 -531211 -541933 -574760 
2234.764 -642159 -749772 -893434 -1062566 -1242041 -1417411 -1574785 
2238.139 -1704148 -1797639 -1849838 -1857789 -1820737 -1740814 -1624502 
2241.515 -1480883 -1322880 -1164292 -1020455 -905371 -830306 -802460 -823163 
2245.372 -886986 -980422 -1084183 -1177047 -1238935 -1258395 -1234805 
2248.747 -1179261 -1109929 -1049147 -1014207 -1013116 -1042007 -1087190 
2252.123 -1130584 -1153949 -1145687 -1103154 -1032256 -944881 -857126 
2255.498 -784567 -739981 -731811 -762440 -827859 -915753 -1007133 -1080315 
2259.355 -1113796 -1093866 -1018868 -902064 -766310 -641663 -554078 -516318 
2263.213 -526048 -566289 -611918 -639281 -635774 -604176 -562185 -533693 
2267.070 -539583 -588757 -673027 -767864 -840691 -863012 -817342 -706273 
2270.927 -550405 -384118 -242937 -155238 -134834 -178158 -267541 -377497 
2274.785 -484414 -570656 -627965 -657014 -664127 -656816 -640968 -619628 
2278.642 -593323 -560994 -521614 -475776 -425199 -373591 -326446 -290852 
2282.500 -274561 -284561 -324492 -392196 -479284 -569730 -646262 -692247 
2286.357 -697805 -663466 -598187 -518039 -437347 -367003 -309527 -260785 
2290.215 -213960 -165340 -118173 -83191 -75108 -106181 -181437 -294726 
2294.072 -429138 -561523 -670347 -739286 -762076 -741932 -689468 -617444 
2297.929 -538624 -463695 -400074 -353263 -326611 -321281 -335418 -363858 
2301.787 -399346 -433574 -459789 -475047 -479549 -476570 -469222 -459789 
2305.644 -447741 -431786 -410601 -386038 -363129 -348695 -348595 -364520 
2309.502 -392096 -421624 -439698 -435229 -402756 -344159 -268965 -190677 
2313.359 -123141 -75903 -52613 -50990 -64871 -85576 -106280 -121651 -129269 
2317.699 -129004 -122015 -109527 -92500 -70602 -42442 -6693 37443 88708 
2322.038 143162 194838 236674 262865 271021 263130 245857 229314 224309 
2326.378 240818 284648 355839 447938 548947 643774 717546 760096 769457 
2330.718 752960 724649 701716 698098 718376 755815 794352 813539 794817 
2335.057 729826 623964 496698 374841 285609 248244 268302 336308 432216 
2339.397 533785 620778 681272 712236 717148 701848 672346 632757 586172 
2343.736 535444 484889 439181 402267 375637 357763 345261 335180 326526 
2348.076 321419 323840 338563 370132 420011 486050 561587 638166 707291 
2352.416 765009 814402 866225 933527 1025914 1143701 1274148 1392667 1468495 
2356.755 1475843 1402041 1254841 1060821 861079 699260 606179 593770 651041 
2361.095 750239 854903 935818 976530 977194 950927 916592 890096 877812 
2365.434 875687 871537 852015 806468 732548 637403 535842 445815 384790 
2369.774 364163 385752 440939 512056 577446 616365 615735 573531 499484 
2374.114 410393 325365 258986 216916 195932 186253 177899 163746 142566 
2378.453 118072 95337 76977 61534 42844 13684 -30449 -88723 -154675 -217503 
2383.275 -266481 -295554 -304560 -299560 -289561 -283567 -286349 -297441 
2387.132 -311282 -320751 -318963 -302507 -272077 -231578 -187431 -145566 
2390.990 -112077 -91274 -85609 -95813 -120193 -154940 -194088 -231346 
2394.847 -261050 -279428 -285985 -282938 -273634 -261878 -249626 -237870 
2398.705 -225981 -213363 -199652 -185113 -169778 -153317 -134437 -111879 
2402.562 -85477 -57450 -32304 -16401 -15539 -32867 -67190 -112442 -160107 
2406.902 -201242 -228962 -240917 -238698 -227206 -212171 -199388 -193029 
2410.759 -196076 -210283 -236380 -273832 -320387 -371009 -418943 -455916 
2414.616 -474683 -471241 -445689 -402690 -351178 -301249 -261382 -237506 
2418.474 -230882 -238665 -254759 -272740 -286912 -293402 -291382 -281846 
2422.331 -267176 -249626 -230783 -211608 -192300 -173852 -157556 -145665 
2426.189 -140134 -142188 -150932 -163452 -175773 -184153 -186902 -184848 
2430.046 -181635 -181934 -188822 -202335 -218331 -229955 -228763 -209257 
2433.904 -170076 -116251 -57053 -5533 25513 26706 -6527 -72491 -163982 
2438.243 -268865 -372763 -462139 -525254 -555633 -552688 -521812 -471837 
2442.101 -413878 -357799 -309759 -272077 -244228 -224425 -211708 -206939 
2445.958 -212304 -229756 -258302 -293302 -325684 -345450 -343464 -315288 
2449.815 -263170 -195910 -126156 -66991 -28063 -12988 -18687 -36147 -54402 
2454.155 -63579 -57251 -35087 -2485 31412 56629 65013 52951 22233 -20178 
2458.977 -65269 -104160 -130561 -143347 -145831 -144274 -144771 -151396 
2462.834 -163585 -176767 -183689 -177230 -153284 -113005 -62751 -13319 22896 
2467.174 35587 18986 -27036 -96541 -179714 -265256 -343828 -409012 -458862 
2471.513 -494045 -516980 -529060 -530218 -518800 -493482 -453997 -403848 
2475.371 -349158 -298302 -258832 -235088 -226643 -228829 -234095 -234823 
2479.228 -226345 -208065 -183755 -158848 -139869 -131025 -133542 -146328 
2483.086 -165340 -186438 -204852 -217139 -220682 -215152 -201971 -184517 
2486.943 -167758 -157093 -156430 -167460 -188359 -214125 -238035 -253865 
2490.801 -257176 -246679 -224127 -193790 -160504 -129601 -105452 -91473 
2494.658 -89916 -101577 -125361 -157755 -193625 -226908 -252209 -266845 
2498.515 -270852 -267475 -260918 -254891 -250984 -247606 -241811 -230220 
2502.373 -212271 -190114 -169513 -157722 -161796 -186239 -231114 -291779 
2506.230 -360083 -424438 -472731 -494409 -482925 -437877 -365910 -281018 
2510.088 -200050 -139405 -110222 -114396 -143744 -182000 -211807 -218728 
2513.945 -196572 -148680 -86206 -22000 33698 76977 111046 142963 180154 
2518.285 226198 279675 334086 382601 418883 440176 447142 441901 426246 
2522.624 400178 362372 311638 248974 179225 109753 50267 9045 -9277 -4506 
2527.446 18886 53415 90034 120591 138787 140908 126093 96265 56033 11497 
2532.268 -30283 -63248 -83655 -90446 -85576 -72325 -53309 -29620 530 40259 
2537.090 92652 157812 231701 306664 372254 418187 438949 433742 408635 
2541.429 373481 340121 317540 310477 317573 333489 350567 362074 365323 
2545.769 361742 356867 357232 368208 391489 424157 459215 488736 505886 
2550.108 507445 494774 473080 449795 431254 422200 424322 436694 457424 
2554.448 484789 517198 553857 593803 635047 674469 708685 734373 749276 
2558.788 753027 746222 730357 706992 677722 644305 609397 576848 551236 
2563.127 536373 534847 545629 564772 586105 603292 612151 612052 605714 
2567.467 598348 595429 600704 615370 637934 665742 696074 727437 759532 
2571.806 792560 825855 856895 881962 896571 896836 881895 853874 818120 
2576.146 781440 751135 732581 728565 738854 760926 790966 824593 858257 
2580.486 889432 917090 941496 963213 983371 1002499 1020135 1034848 1045277 
2584.825 1049362 1046738 1037903 1025050 1011234 999710 993035 993101 
2588.683 1000839 1016747 1041324 1074573 1116194 1164299 1214767 1261819 
2592.540 1298507 1318248 1317683 1297045 1261420 1218821 1178751 1149747 
2596.397 1136924 1141940 1162837 1195961 1236864 1281724 1328484 1375715 
2600.255 1422485 1467730 1510387 1549158 1582778 1610646 1632863 1650024 
2604.112 1663528 1674837 1686013 1699385 1716949 1740002 1768380 1799987 
2607.970 1831031 1856719 1872658 1875587 1865204 1843342 1813862 1780457 
2611.827 1746889 1714421 1683652 1654282 1625911 1599006 1574996 1554811 
2615.685 1539714 1529407 1522923 1518700 1515608 1513081 1511651 1512914 
2619.542 1518268 1529440 1547595 1573899 1608052 1650058 1697822 1747554 
2623.399 1794797 1833327 1857917 1865770 1857285 1836754 1811300 1789041 
2627.257 1776132 1776132 1788442 1809603 1834292 1857917 1877550 1892392 
2631.114 1902809 1908799 1909964 1904007 1888266 1860779 1821914 1775600 
2634.972 1729856 1693797 1677764 1689140 1730455 1798457 1884838 1977694 
2638.829 2063812 2132765 2178184 2199098 2198964 2184478 2163466 2141522 
2642.687 2123075 2110156 2103364 2103098 2110123 2124940 2147782 2177085 
2646.544 2210154 2242992 2272002 2294619 2310441 2320934 2328163 2333426 
2650.401 2336558 2335858 2329029 2314605 2293187 2267539 2241727 2219512 
2654.259 2202994 2192071 2185111 2180182 2177252 2177785 2185610 2204093 
2658.116 2235199 2277798 2328063 2380866 2431343 2476394 2515751 2550712 
2661.974 2582842 2612009 2636476 2652845 2658279 2651678 2634476 2611242 
2665.831 2587709 2569043 2558777 2557778 2564877 2578043 2594742 2613542 
2669.688 2632976 2651644 2667846 2679615 2685249 2684449 2678648 2670547 
2673.546 2663746 2661079 2663846 2671447 2681849 2692584 2702253 2710555 
2677.403 2718657 2728326 2740630 2755968 2773175 2790482 2805989 2818228 
2681.261 2826732 2831735 2833969 2834536 2834269 2834669 2836337 2840272 
2685.118 2846209 2853313 2859783 2863352 2862185 2855881 2845342 2833302 
2688.976 2823063 2817127 2815960 2817761 2818728 2814126 2800253 2775542 
2692.833 2741330 2701286 2660945 2625442 2598709 2582842 2577943 2581676 
2696.690 2591042 2602809 2613108 2619209 2619009 2611575 2597242 2577376 
2700.548 2554478 2531181 2509819 2491923 2478093 2468163 2461565 2458200 
2704.405 2458700 2464298 2476794 2497322 2526449 2562744 2603908 2646377 
2708.263 2686650 2721658 2749399 2769607 2783079 2791682 2797685 2803654 
2712.120 2811625 2823264 2839672 2861051 2886967 2916521 2948645 2982073 
2715.978 3016003 3049603 3082371 3113807 3142942 3168842 3190437 3207126 
2719.835 3219110 3227088 3232462 3236969 3242010 3247918 3255396 3264276 
2723.692 3275193 3288847 3306743 3329413 3356827 3387214 3417502 3443919 
2727.550 3463424 3474012 3475648 3470071 3458915 3443853 3425050 3402007 
2731.407 3374023 3341434 3306142 3271688 3241642 3218109 3200617 3185731 
2735.265 3168208 3142942 3106665 3059614 3005660 2950179 2899208 2856548 
2739.122 2823264 2797752 2776809 2757736 2738529 2718957 2699819 2682449 
2742.979 2667480 2655345 2645910 2639543 2637043 2639843 2649111 2665179 
2746.837 2687216 2712655 2737629 2758669 2772508 2777443 2773742 2763237 
2750.694 2748899 2733928 2721491 2713622 2710922 2712288 2715189 2717056 
2754.552 2715523 2709821 2701253 2692951 2688717 2691884 2704153 2724859 
2758.409 2751300 2780277 2808557 2834803 2858883 2881730 2904445 2926561 
2762.267 2946843 2963090 2973699 2977869 2976968 2973599 2970796 2971063 
2766.124 2975534 2984308 2996719 3012600 3032219 3056644 3086910 3122951 
2769.981 3163435 3205391 3245214 3280034 3308279 3330215 3347844 3363739 
2773.839 3380535 3399736 3421877 3446992 3475214 3507313 3544525 3588890 
2777.696 3642147 3705603 3778728 3860122 3946714 4034360 4118813 4196189 
2781.554 4263842 4320762 4368888 4412200 4455883 4505564 4565262 4636522 
2785.411 4717106 4802361 4885891 4961360 5024607 5074620 5113376 5145260 
2789.269 5175773 5210211 5251694 5301835 5360737 5427565 5501819 5583436 
2793.126 5673058 5771361 5878284 5992591 6111364 6231143 6347493 6456644 
2796.983 6555898 6644072 6721058 6787894 6846459 6899310 6949069 6999574 
2800.841 7054733 7118589 7195019 7286390 7393316 7514360 7646566 7785458 
2804.698 7926621 8066244 8201286 8330155 8452373 8568947 8681936 8794582 
2808.556 8911148 9035322 9170733 9318509 9478222 9646699 9819919 9993413 
2812.413 10164023 10330664 10494516 10658125 10824548 10997016 11178289 
2815.788 11370045 11573899 11791194 12022564 12267758 12525846 12794256 
2819.164 13070208 13351289 13636176 13925426 14220414 14523242 14835161 
2822.539 15156432 15486181 15824392 16172396 16534204 16916224 17325720 
2825.914 17769910 18253810 18779626 19347444 19956834 20608392 21304912 
2829.289 22051456 22854742 23721696 24657854 25667492 26753128 27916844 
2832.665 29161174 30489154 31905998 33418614 35035024 36766008 38623592 
2836.040 40620372 42769276 45080388 47559848 50208252 53021276 55989328 
2839.415 59099844 62340152 65697312 69159104 72715504 76356448 80072992 
2842.790 83858064 87705408 91609728 95565776 99565192 103595680 107637944 
2846.166 111664664 115642744 119531264 123283376 126849728 130173936 
2849.059 133196976 135859456 138099968 139863952 141105984 141792096 
2851.952 141905440 141446400 140433440 138900720 136898512 134488816 
2854.845 131737680 128717792 125498040 122140520 118703576 115233816 
2857.738 111770552 108347704 104992088 101728864 98582480 95575808 92733856 
2861.113 90080560 87636360 85419008 83438552 81697624 80191016 78907288 
2864.488 77830792 76943976 76230968 75676656 75267056 74987768 74820760 
2867.864 74741800 74721808 74724680 74712680 74649872 74502576 74245640 
2871.239 73861312 73339392 72677784 71881368 70963216 69942880 68848928 
2874.614 67715024 66577232 65473272 64435364 63489280 62653980 61940560 
2877.989 61355148 60900988 60579780 60393236 60341608 60423928 60636392 
2881.365 60973048 61426708 61989748 62655972 63421444 64283812 65242408 
2884.740 66296608 67444456 68682480 70004960 71404400 72872264 74398472 
2888.115 75973352 77587640 79231576 80896760 82574488 84256144 85934200 
2891.490 87601784 89253856 90887728 92502560 94099496 95679832 97244136 
2894.865 98792120 100322232 101833664 103327376 104807184 106280120 
2897.759 107753640 109235256 110729512 112236904 113754360 115278016 
2900.652 116804248 118332736 119866448 121411160 122973352 124558128 
2903.545 126167936 127803120 129463552 131150784 132870032 134630032 
2906.438 136442816 138319840 140269472 142294400 144390608 146549696 
2909.331 148759952 151011792 153299248 155621472 157982016 160386000 
2912.224 162836096 165330480 167860256 170410640 172963552 175497808 
2915.117 177993472 180429408 182780208 185016480 187099632 188981552 
2918.010 190612000 191936608 192906432 193482144 193633312 193341408 
2920.903 192598576 191406464 189776112 187728496 185293472 182505776 
2923.796 179404416 176029456 172417792 168607232 164635280 160539376 
2926.689 156359936 152135424 147900912 143686368 139513440 135397056 
2929.582 131347432 127371472 123475176 119664584 115944816 112320744 
2932.475 108795952 105372896 102053760 98840632 95735552 92740872 89858456 
2935.851 87089712 84435832 81898216 79478632 77180392 75006080 72959896 
2939.226 71045432 69266088 67626272 66130744 64785324 63596672 62570928 
2942.601 61712680 61024256 60504588 60150064 59954808 59912620 60016736 
2945.976 60261396 60640732 61148284 61776504 62515096 63349320 64262256 
2949.352 65232016 66232420 67236688 68213736 69132728 69965104 70683848 
2952.727 71268272 71704992 71987216 72115744 72095832 71936544 71646840 
2956.102 71235672 70710976 70079088 69345888 68516480 67594296 66582404 
2959.477 65481780 64293072 63016488 61653484 60207308 58684792 57094884 
2962.853 55449900 53763416 52048976 50319812 48586392 46857128 45137812 
2966.228 43432816 41746312 40083804 38451640 36857612 35309668 33814104 
2969.603 32375608 30996092 29675750 28413496 27208200 26058728 24963736 
2972.978 23921736 22930918 21989026 21094978 20248728 19451420 18705004 
2976.354 18010464 17366686 16769355 16211156 15683388 15177979 14689747 
2979.729 14216715 13761333 13327952 12921355 12545149 12200245 11885103 
2983.104 11596120 11328110 11076307 10835657 10602100 10373284 10147912 
2986.479 9926421 9710124 9501521 9301753 9110738 8926402 8745288 8563811 
2990.337 8379402 8192068 8004476 7820980 7645386 7480008 7323893 7173190 
2994.194 7022539 6867666 6706589 6540425 6373383 6210539 6056661 5913886 
2998.052 5782207 5659697 5543263 5430517 5319378 5209272 5099730 4990619 
3001.909 4881602 4772311 4662578 4552773 4443731 4336391 4231353 4129316 
3005.766 4030414 3935112 3844277 3759376 3681610 3611809 3548935 3489811 
3009.624 3430761 3367345 3296860 3219444 3138303 3058546 2986076 2925594 
3013.481 2878528 2842774 2813192 2783712 2748065 2702119 2644744 2577376 
3017.339 2504387 2430443 2361177 2301014 2252851 2217847 2195368 2182680 
3021.196 2176020 2171058 2163399 2150213 2130600 2105262 2076829 2048364 
3025.053 2022798 2001926 1985416 1971636 1957923 1941148 1919316 1891361 
3028.911 1857983 1820782 1782487 1745558 1712658 1685415 1664859 1650989 
3032.768 1643372 1640146 1639182 1637718 1632796 1622619 1606123 1584174 
3036.626 1559300 1535093 1515142 1502341 1497753 1500546 1507894 1516738 
3040.483 1523355 1525716 1522657 1514544 1502541 1488011 1471687 1454632 
3044.341 1437078 1419792 1403670 1389642 1378806 1371360 1366640 1362818 
3048.198 1357533 1348094 1332439 1309939 1281126 1248062 1213272 1179282 
3052.055 1148485 1121443 1098622 1078957 1061253 1043982 1025648 1005555 
3055.913 983337 959129 934124 909719 887772 870541 859950 857493 862938 
3060.252 874724 889731 903410 911612 911246 901584 884917 865428 848894 
3064.592 839665 839765 847566 858721 866889 866557 854505 831100 799663 
3068.932 765673 734473 710311 694414 686947 685985 689768 697036 707324 
3073.271 720500 736431 754222 772112 788045 800095 806800 807962 804377 
3077.611 797506 789539 782634 778817 778950 783066 789572 795979 798236 
3081.950 793223 778784 754753 723321 688142 653629 623068 598315 579105 
3086.290 564108 551402 539856 529473 520814 514710 511658 511294 512753 
3090.630 515639 520217 527549 539093 555947 577048 599941 620911 636241 
3094.969 644039 644570 640621 635511 632226 631297 630534 626154 614242 
3099.309 592741 562649 528179 495304 470227 457623 458552 471620 492850 
3103.648 518028 542809 563976 579602 588726 590850 586105 575422 560724 
3107.988 544567 530368 521013 518326 522307 531132 541383 549245 552297 
3112.328 549113 540719 529672 518592 509635 502868 496631 488139 474904 
3116.667 455832 432349 408171 388968 379252 382701 399846 428767 464854 
3121.007 503133 538098 565833 583617 590452 586271 573033 553160 530070 
3125.346 507545 489035 477525 473843 477923 488471 503863 522606 543572 
3129.686 565601 587267 605880 618290 621409 613910 596822 573896 550572 
3134.026 531729 520118 515407 514113 512488 507844 500479 493447 491788 
3138.365 498655 514246 534084 550871 556677 545563 517364 476331 431055 
3142.705 390229 361808 349771 354645 373912 404456 441901 482334 521644 
3147.044 554852 576550 582721 570810 541714 499617 451520 405186 366849 
3151.384 341182 329410 330803 343006 363334 388869 416396 443294 466380 
3155.724 483860 494740 499849 501143 501143 501972 504725 508640 513085 
3160.063 516867 520118 523700 529042 537269 548316 560990 573497 583982 
3164.403 591713 596490 598912 599642 598182 593670 585475 573697 559464 
3168.742 545330 533885 526454 523004 521743 520350 516900 510829 503067 
3173.082 495304 488537 482169 473975 461139 441802 416694 389267 365622 
3177.422 352125 352888 368839 397027 430856 462864 486812 498821 498290 
3181.761 487144 469696 450923 434670 423858 419082 419314 421470 422366 
3186.101 418883 409066 393213 372321 348444 323442 298574 274436 252289 
3190.440 233657 221590 219568 230011 253118 285709 321751 354115 376002 
3194.780 384093 379119 365456 349306 336109 329742 330936 338463 350135 
3199.120 363665 377162 388803 396895 398288 390162 371027 341414 304310 
3203.459 264689 227690 196661 172728 154531 139583 126524 115388 107964 
3207.799 106340 111410 121884 133815 142731 145184 140842 132324 123640 
3212.138 119597 122414 132158 146609 163514 180816 198186 215457 232298 
3216.478 245924 252654 247946 228817 196065 154531 111477 74922 50565 39596 
3221.300 39431 44799 50366 52089 49173 42612 34626 27137 21239 17064 14380 
3226.604 13021 12955 14579 17693 22034 26938 31876 36780 41518 46555 51095 
3231.908 53481 51692 44567 32240 17495 4174 -3843 -4141 2418 11663 18688 
3237.212 19516 12955 1358 -10138 -16367 -14512 -5500 5931 13651 11829 -1656 
3242.516 -25943 -56721 -89253 -119067 -143811 -162856 -176402 -184252 
3246.373 -185411 -177694 -160571 -134437 -102438 -69509 -41415 -22928 -17030 
3250.713 -23955 -41879 -67356 -96740 -126288 -152853 -173852 -187233 -192532 
3255.052 -190644 -183457 -173521 -163618 -155304 -148448 -141790 -132880 
3258.910 -119994 -102637 -82197 -61127 -42608 -29156 -22464 -22729 -29289 
3263.249 -40786 -55926 -73617 -92135 -109626 -124135 -133874 -137385 -134702 
3267.589 -126719 -115589 -103895 -93792 -86305 -81634 -79514 -78487 -77758 
3271.928 -76499 -73816 -69741 -63778 -56324 -48240 -40222 -33961 -30912 
3276.268 -31774 -36909 -45722 -57152 -69675 -81568 -91506 -97734 -99556 
3280.608 -95548 -85676 -69940 -50228 -29355 -11033 397 1954 -8117 -28792 
3285.429 -56887 -87398 -114661 -134470 -144175 -143811 -136126 -125526 
3289.287 -116417 -112574 -116318 -127646 -145301 -166930 -190313 -213098 
3293.144 -233929 -251381 -264262 -271316 -271812 -266183 -255984 -244096 
3297.002 -233929 -228730 -229458 -234889 -242109 -246844 -245785 -237837 
3300.859 -224160 -207866 -191936 -178323 -166665 -154940 -140432 -121916 
3304.717 -100682 -80872 -67157 -63579 -70934 -86670 -104459 -117676 -121220 
3309.056 -113933 -99291 -83589 -73915 -75008 -87995 -109991 -135165 -156795 
3313.396 -169977 -171997 -163883 -148547 -130462 -114297 -103796 -101974 
3317.253 -109957 -127911 -154145 -185809 -218828 -249195 -273104 -288071 
3321.111 -293898 -291845 -284958 -276945 -271249 -270587 -276647 -289561 
3324.968 -307971 -329393 -350151 -366175 -373326 -369850 -355117 -331379 
3328.825 -302540 -273932 -249096 -230121 -216046 -203660 -188889 -168487 
3332.683 -141624 -110322 -78388 -50095 -29289 -16765 -11431 -10105 -10304 
3337.022 -10470 -11033 -13816 -21238 -34060 -51288 -70238 -87266 -99291 
3341.362 -105088 -105386 -102537 -99324 -97171 -96442 -95912 -94057 -90115 
3345.702 -85146 -81336 -81800 -88193 -101047 -117444 -133443 -144506 -147520 
3350.041 -141823 -130031 -116715 -106678 -104094 -110222 -124234 -143479 
3353.899 -164048 -182762 -197765 -208296 -215516 -221279 -227107 -234459 
3357.756 -243466 -253302 -261514 -265653 -263236 -253004 -235750 -214489 
3361.614 -193956 -179052 -173653 -178357 -190180 -203097 -209621 -203925 
3365.471 -182728 -147951 -105353 -63678 -30912 -12590 -10337 -21006 -38765 
3369.811 -56390 -68648 -72590 -69178 -61591 -55032 -54303 -61823 -77758 
3374.150 -99457 -122214 -140796 -150833 -150634 -141094 -125957 -111084 
3378.008 -102537 -104757 -119994 -147023 -182099 -219358 -252308 -275455 
3381.865 -284759 -278766 -258269 -225981 -186074 -144175 -104823 -72424 
3385.722 -49433 -36379 -32470 -35518 -44099 -56622 -72822 -92367 -115224 
3390.062 -140531 -166267 -189650 -208528 -221312 -228167 -230849 -231611 
3393.919 -232240 -233532 -234293 -233234 -229392 -223762 -218695 -218364 
3397.777 -226379 -244725 -271680 -302507 -330949 -349953 -354224 -341610 
3401.634 -313301 -273634 -228034 -183126 -144274 -115125 -97668 -91572 
3405.492 -94322 -102338 -111349 -118139 -120359 -118603 -114595 -111183 
3409.349 -110454 -112376 -114827 -114131 -106645 -90744 -68018 -43270 -22994 
3413.689 -13087 -17328 -35617 -63115 -93427 -119100 -134238 -135927 -124599 
3418.028 -103796 -78487 -54767 -38466 -33132 -40322 -58444 -82661 -106413 
3422.368 -122943 -128077 -120823 -105121 -87796 -77592 -81237 -101345 
3426.225 -136093 -178953 -221014 -254030 -273071 -276581 -266183 -244957 
3430.083 -215582 -179516 -137550 -90844 -42409 2451 36581 53978 50996 28330 
3434.905 -8482 -50957 -90446 -120160 -137683 -144837 -146394 -148050 -154211 
3439.244 -166830 -184683 -204620 -222305 -234260 -238234 -234459 -224690 
3443.102 -212271 -200977 -193857 -192598 -197831 -207601 -218894 -227902 
3446.959 -230783 -225319 -211807 -191836 -169679 -149375 -135265 -130097 
3450.816 -135099 -149441 -169679 -191605 -209323 -217967 -214854 -200017 
3454.674 -176833 -151131 -130296 -119199 -120094 -131058 -146758 -160107 
3458.531 -165108 -159477 -145500 -129601 -120259 -124764 -147057 -185908 
3462.389 -235088 -285687 -328830 -357435 -369088 -364387 -347139 -322671 
3466.246 -296382 -272607 -254328 -243301 -239261 -241248 -246877 -253302 
3470.104 -257607 -257540 -251215 -238797 -221643 -202004 -182828 -166731 
3473.961 -155304 -149011 -147487 -148878 -151760 -154774 -157523 -160769 
3477.818 -166168 -175740 -190777 -211443 -235552 -259196 -277574 -286150 
3481.676 -282541 -268468 -248599 -229823 -218927 -220649 -235386 -260024 
3485.533 -288336 -312838 -326777 -326181 -310818 -284594 -253202 -223133 
3489.391 -200116 -187266 -185246 -192134 -205084 -219523 -231942 -239625 
3493.248 -241546 -238433 -232604 -227107 -224855 -226809 -232340 -238963 
3497.105 -243102 -242076 -234823 -222934 -210184 -201043 -199586 -207767 
3500.963 -224358 -245685 -265885 -279362 -282740 -275819 -261978 -245950 
3504.820 -231942 -222338 -216675 -212668 -206773 -196639 -181569 -163585 
3508.678 -146527 -135364 -133874 -141989 -157159 -174183 -187895 -195049 
3512.535 -195281 -191571 -188723 -191406 -202335 -221047 -244228 -266448 
3516.393 -282475 -289826 -289163 -284561 -281481 -285753 -299858 -323665 
3520.250 -353197 -382364 -404576 -414044 -407456 -384714 -348860 -305024 
3524.107 -259759 -218629 -185610 -162889 -150270 -145765 -146030 -147322 
3527.965 -146063 -139902 -128276 -112276 -94521 -78123 -66428 -62320 -67720 
3532.304 -83191 -108301 -141094 -178257 -216311 -250553 -278038 -296183 
3536.162 -305487 -308235 -307739 -307010 -307474 -308434 -307838 -303004 
3540.019 -291779 -274528 -253235 -231578 -214059 -204488 -205216 -216443 
3543.877 -236943 -263964 -294229 -324526 -351840 -373690 -388389 -394877 
3547.734 -393288 -385012 -372200 -357501 -343265 -331677 -323135 -317606 
3551.592 -314129 -311811 -310520 -311249 -315652 -325717 -342636 -365149 
3555.449 -390507 -414540 -432018 -438274 -430893 -410005 -378954 -343066 
3559.306 -309129 -282806 -268004 -265289 -273071 -287541 -305189 -323201 
3563.164 -339954 -354488 -366142 -373591 -374551 -366970 -349953 -326181 
3567.021 -302309 -286448 -284561 -297077 -319923 -346510 -370115 -385277 
3570.879 -389415 -382529 -366440 -344920 -322042 -300488 -282077 -266746 
3574.736 -253964 -242175 -230286 -217172 -202004 -184517 -164346 -141823 
3578.594 -118338 -95978 -77394 -64904 -59902 -62121 -70867 -84284 -100782 
3582.933 -119564 -140333 -163055 -187233 -211641 -233896 -250023 -255785 
3586.791 -247341 -224491 -190015 -149243 -106777 -65335 -25247 13750 51990 
3591.130 88244 120193 143626 154166 147869 123110 81782 29887 -24684 -73054 
3595.952 -108401 -127083 -129203 -117079 -95249 -69509 -45026 -27135 -20277 
3600.292 -26904 -47677 -80806 -122578 -167360 -209058 -242175 -262342 
3604.149 -267011 -255951 -231578 -198195 -161067 -126354 -98131 -77791 
3608.006 -63943 -52746 -41051 -27135 -12126 1358 10139 11663 4771 -10337 
3612.828 -31211 -54203 -75804 -92964 -104889 -111978 -116019 -118802 -123108 
3617.168 -130925 -142055 -153648 -159378 -150833 -120856 -68283 1491 77838 
3621.507 148697 202960 231933 231469 201236 145085 70548 -12690 -93759 
3625.847 -163783 -214191 -239128 -234625 -201342 -148249 -93394 -57351 
3629.704 -49996 -66793 -95448 -123671 -141923 -144672 -130495 -102305 -67157 
3634.044 -34325 -12690 -7090 -17925 -41349 -72126 -104657 -134238 -157821 
3638.384 -173985 -182099 -181834 -172627 -153847 -124996 -86537 -40388 10304 
3642.723 61699 110980 156652 199048 239393 280039 323475 371127 424488 
3647.063 483960 549245 618389 686781 745459 780344 778618 732813 646130 
3651.402 531364 403859 277387 161326 62594 -14744 -68085 -96144 -100682 
3655.742 -87266 -65699 -45192 -32403 -29256 -34723 -46782 -63778 -85378 
3660.082 -110918 -139770 -170242 -199752 -225517 -245222 -257838 -263964 
3663.939 -265355 -264428 -263633 -265190 -270157 -279428 -292508 -308103 
3667.796 -322671 -330485 -324526 -299229 -256348 -206044 -165241 -147156 
3671.654 -157888 -196009 -255984 -329955 -405702 -466475 -491828 -465482 
3675.511 -389316 -288170 -192068 -117311 -66925 -36379 -20078 -14015 -15539 
3679.851 -21934 -30382 -37539 -40421 -38367 -32867 -28560 -31409 -46849 
3684.190 -77327 -121187 -172461 -221842 -259196 -275289 -263269 -221676 
3688.048 -156828 -82065 -12524 39530 69719 80291 76049 62097 42546 20245 
3692.870 -2485 -23855 -42773 -59173 -74346 -90280 -109494 -133642 -162591 
3697.209 -194552 -225981 -252838 -271547 -279329 -274561 -256878 -227902 
3701.067 -190578 -149740 -111051 -79216 -57682 -47577 -48936 -60266 -79448 
3705.406 -103465 -128209 -149475 -162723 -164280 -152489 -126917 -90181 
3709.264 -46285 -762 41253 75320 99015 110880 110250 95668 66206 21537 
3714.085 -36445 -103432 -173455 -238334 -290455 -322009 -329095 -312109 
3717.943 -277044 -233697 -192433 -161796 -145467 -141790 -145202 -149011 
3721.800 -147686 -139140 -125526 -111812 -102703 -100980 -106678 -116218 
3725.658 -124599 -126785 -120359 -106082 -87961 -70867 -59736 -58080 -68317 
3729.997 -91870 -128474 -176204 -229657 -281746 -322936 -344755 -341510 
3733.855 -311149 -257342 -188756 -119166 -62320 -26307 -9542 -4439 -2915 629 
3738.677 6792 12591 12491 2451 -19879 -52182 -88525 -118636 -130793 -113204 
3743.498 -59835 21835 108892 174286 205744 208595 195932 177701 159171 
3747.838 139350 112836 71906 10470 -70304 -159941 -241612 -299097 -324757 
3752.177 -321016 -297574 -265455 -232538 -202997 -178588 -159411 -146063 
3756.035 -139538 -140962 -149971 -164644 -180476 -191969 -194883 -187332 
3759.892 -171699 -152456 -134105 -119663 -109229 -101146 -93129 -84317 
3763.750 -74644 -66428 -62585 -65699 -76002 -91572 -108864 -124996 -138511 
3768.089 -149475 -158848 -167824 -176502 -183855 -187564 -186040 -178622 
3771.947 -166367 -150932 -134470 -119166 -106280 -97105 -91837 -90347 -92036 
3776.286 -95514 -99688 -103067 -104459 -104061 -103266 -104525 -111051 
3780.144 -124632 -144871 -169248 -194088 -215781 -230485 -236214 -232174 
3784.001 -219556 -201077 -180642 -162127 -147951 -139339 -136822 -139604 
3787.859 -146494 -155403 -163585 -167394 -163783 -150336 -126785 -95249 
3791.716 -59637 -25313 3114 22134 30484 29026 20212 7985 -3512 -10403 -10403 
3797.020 -3479 8217 21835 33930 41717 42115 32141 9840 -24187 -64540 -103365 
3802.324 -133874 -153582 -163452 -166168 -163154 -154708 -139438 -115589 
3806.181 -82760 -43701 -4804 26673 45627 50499 43805 29655 12756 -1954 -9840 
3811.485 -8647 3015 24188 52719 86090 120989 154332 181612 197822 199214 
3816.307 185325 159171 125761 89537 53382 19350 -10138 -32867 -45656 -46318 
3821.129 -35352 -17229 2087 18422 29655 34759 33300 24287 6693 -19515 -52812 
3826.433 -89916 -125824 -155768 -176601 -187166 -187067 -177065 -157656 
3830.290 -128839 -91937 -49797 -6427 32505 61865 78899 83306 77341 66438 
3835.112 56861 55436 66604 91658 126590 163381 191092 201733 191424 163050 
3839.934 123209 80788 42678 14181 -1491 -3313 7587 28595 55304 82478 105279 
3845.238 120392 126093 122580 110781 92254 69255 43772 18555 -3479 -18753 
3850.060 -23292 -12988 15805 64450 128844 194540 238498 241183 202164 141140 
3854.881 80655 35488 9476 66 530 3545 2021 -8018 -27400 -53276 -80640 
3860.185 -103432 -116616 -117808 -108334 -92964 -77592 -67820 -66097 -71331 
3864.525 -79150 -84682 -85378 -80541 -72226 -62320 -52083 -41514 -29090 
3868.865 -12888 8117 32505 56265 75717 88708 95535 97458 96397 93613 90332 
3874.168 86654 82379 76877 69686 60705 50035 38536 26905 16501 9542 8416 
3879.472 15672 32638 58187 88211 117906 142798 160265 169546 170839 164641 
3884.294 151415 131429 104881 72304 35123 -4903 -45755 -85013 -120094 
3888.634 -148050 -165274 -168752 -156960 -131323 -96972 -61558 -31940 -11894 
3892.973 -2120 -1358 -8117 -21072 -39692 -62685 -87696 -110057 -123605 
3897.313 -121816 -99755 -56986 1093 63655 116349 148465 155525 140975 113233 
3902.135 83041 59645 47549 47218 55105 66372 76877 84500 88079 86819 79827 
3907.439 66405 46323 21570 -3412 -22663 -29720 -20078 7388 49008 97093 
3912.260 142930 178828 200208 205943 197755 178231 149526 113200 70514 23890 
3917.082 -21635 -59637 -83556 -89055 -75837 -49300 -18322 7521 20477 17495 
3921.904 662 -23126 -44927 -56158 -51354 -29885 3280 39729 71210 92586 
3926.726 102197 101534 93713 82445 70978 61699 56066 53614 52885 51128 44633 
3932.030 30418 6825 -24783 -60896 -96078 -124599 -141823 -144473 -132317 
3936.369 -107374 -74180 -39030 -8647 11497 18058 10702 -7521 -31641 -55595 
3941.191 -72888 -78884 -71629 -52911 -27400 -298 23658 43208 59015 74027 
3946.013 90763 110549 132324 152841 167060 169944 159304 136268 105379 72967 
3950.835 45661 28131 22399 27137 38934 53117 65113 71939 72337 67267 59347 
3956.139 51493 46224 44666 46257 49969 53912 57458 60772 65278 72602 83572 
3961.443 97789 113034 126292 134511 136401 132258 124469 115553 107500 
3965.782 100407 93116 82776 67433 46522 21935 -2385 -22199 -34159 -37572 
3970.604 -34259 -28328 -23392 -22000 -23955 -26605 -25843 -17560 66 26673 
3975.426 59247 94077 126723 154166 175281 190098 200043 207501 214894 224441 
3980.248 238067 256732 279542 304509 327753 345394 353684 350832 337004 
3984.587 314589 287532 260246 236144 217678 205512 198949 196429 195402 
3988.927 193545 187645 175347 154498 125463 90829 54939 24354 5036 1060 
3993.749 13419 39265 73099 108693 140477 165602 183568 195700 203457 207302 
3998.570 206838 200706 188938 172695 155824 
##END=
