##TITLE=ac_3 Sep 07 10:08:20 2026 (GMT+02:00)
##JCAMP-DX=5.01  $$ Nicolet v. 970
##DATATYPE=INFRARED SPECTRUM
##ORIGIN=Vojna akademija
##OWNER=Nicolet
##LONGDATE=2026/09/07
##TIME=10:08:48
##SPECTROMETER/DATA SYSTEM=Nicolet iS20
##DATA PROCESSING=
Ratio against background
%Transmittance->Absorbance
Truncated
ElementMultiply or ElementDivide
##COMMENTS=
Number of sample scans: 8
Collection length: 11,90 sec
Sample gain: 8,0
Background collected on: Mon Sep 07 10:04:03 2026 (GMT+02:00);
Number of background scans: 8
Background gain: 8,0
Sample spacing:  1,000
Number of scan points: 12415
Resolution points: 8286
Number of FFT points: 65536
Apodization: N-B strong;
Phase correction: Mertz;
Laser frequency: 15798,00 cm-1
Number of rejected sample scans: 0
Number of rejected background scans: 0
Bench serial number: BER2010005;
##RESOLUTION= 4,000
##XUNITS=1/CM
##YUNITS=ABSORBANCE
##FIRSTX=400.156891
##LASTX=4000.123047
##FIRSTY=0.003797
##MAXX=4000.123047
##MINX=400.156891
##MAXY=0.273290
##MINY=-0.006752
##XFACTOR=1.000000
##YFACTOR=1.000000E-009
##NPOINTS=7468
##DELTAX=0.482117
##ZPD=6100
##XYDATA=(X++(Y..Y))
400.157 3796911 -481170 -3808510 -5939169 -6752239 -6285285 -4725421 
403.532 -2381956 358492 3096554 5434779 7096023 7964349 8103916 7701807 
407.389 6994995 6197431 5451185 4842332 4406275 4141325 4007171 3923108 
411.246 3780600 3447693 2822130 1868565 656151 -657312 -1859505 -2759267 
415.103 -3249198 -3297540 -2928925 -2178886 -1070168 395800 2188041 4138682 
418.959 5910696 7112930 7519349 7178849 6328464 5286205 4351284 3801256 
422.816 3827763 4484941 5653622 7054127 8340558 9210058 9524586 9308556 
426.673 8702963 7878775 6989170 6129107 5326052 4570787 3847085 3160097 
430.530 2550845 2081390 1805144 1737042 1835057 2008118 2139091 2133497 
434.387 1938186 1575295 1139681 790601 691295 947938 1575960 2494989 3563333 
438.726 4615424 5520846 6205329 6672705 6993884 7282784 7642823 8111782 
442.583 8641712 9109180 9373557 9328293 8947676 8278785 7413235 6440905 
446.440 5432363 4426995 3443986 2505320 1652951 949565 472118 283322 407640 
450.779 813174 1408523 2056987 2612409 2977802 3127457 3106465 2990180 
454.636 2852413 2732027 2627276 2508452 2341088 2112287 1854523 1636621 
458.493 1538318 1613007 1871460 2292121 2838638 3472976 4148417 4808794 
462.350 5389621 5819447 6042818 6033041 5796075 5367212 4806013 4188327 
466.207 3590861 3088278 2734995 2551945 2530381 2636110 2827099 3061749 
470.064 3312252 3566039 3825256 4099646 4392920 4688836 4946714 5105631 
473.921 5111330 4942793 4625404 4231821 3865939 3643417 3644253 3882788 
477.778 4287466 4728428 5058128 5177416 5077001 4841360 4617032 4547650 
481.635 4723939 5129167 5643820 6082835 6285734 6176929 5806350 5322061 
485.492 4916787 4737070 4821961 5098893 5420788 5636133 5632004 5385394 
489.348 4962398 4497529 4131825 3980587 4096168 4462511 5006842 5625325 
493.205 6219312 6706622 7039916 7204586 7208427 7074805 6835284 6524717 
497.062 6169132 5782274 5363354 4904254 4404434 3885931 3398467 3019307 
500.919 2827532 2871824 3145646 3582409 4082153 4548386 4930494 5226777 
504.776 5470243 5695819 5914223 6095503 6180727 6103299 5830461 5383079 
508.633 4834156 4276758 3790092 3415365 3146413 2942673 2755735 2559144 
512.490 2361376 2204359 2142487 2220312 2449336 2801487 3208228 3584681 
516.347 3847352 3937720 3839898 3578634 3209530 2796217 2402522 2076230 
520.204 1844540 1716982 1688408 1744194 1865970 2035681 2235965 2449636 
524.061 2660545 2850511 3003826 3110970 3174349 3210398 3244246 3300867 
527.918 3391288 3506378 3616420 3684517 3678402 3591396 3452069 3327610 
531.775 3305174 3458982 3831039 4407212 5118807 5851014 6481161 6906043 
535.632 7067834 6968765 6661534 6230471 5760079 5325281 4973928 4725983 
539.489 4581603 4528464 4553877 4648177 4806181 5024741 5294590 5597231 
543.346 5900787 6161302 6331826 6368507 6244488 5959569 5544908 5056552 
547.203 4559603 4116170 3764690 3518035 3364340 3277697 3226287 3185631 
551.059 3145078 3108735 3092049 3113240 3188968 3326041 3520741 3760245 
554.916 4028106 4310823 4602799 4906432 5228990 5574811 5938038 6297769 
558.773 6620992 6870392 7011663 7024897 6908298 6676238 6352032 5960779 
562.630 5524303 5059971 4589673 4145975 3772344 3520541 3430460 3511522 
566.487 3729064 4007941 4249621 4358078 4279703 4017505 3633961 3220278 
570.344 2872691 2652945 2573676 2604908 2694618 2793583 2872925 2934000 
574.201 2999922 3101793 3259202 3469135 3702863 3917224 4064293 4109246 
578.058 4039544 3865271 3616554 3339397 3091682 2926228 2882864 2974466 
581.915 3183494 3467232 3771776 4049577 4266083 4407279 4474898 4477308 
585.772 4420467 4304432 4128513 3902380 3655446 3439411 3311684 3322201 
589.629 3488040 3784310 4142830 4474931 4702133 4777537 4703842 4524179 
593.486 4299512 4078842 3889508 3737987 3620931 3542187 3517969 3571652 
597.343 3720809 3961259 4258957 4552304 4774722 4873594 4831141 4670817 
601.200 4448217 4230047 4067336 3987676 3988779 4045932 4120284 4171968 
605.057 4168187 4086468 3920334 3682011 3404378 3133397 2924927 2826232 
608.913 2859783 3015870 3251757 3506812 3714627 3829435 3834482 3745172 
612.770 3596574 3431229 3285042 3179689 3126489 3130494 3195978 3326075 
616.627 3518603 3760914 4026267 4278732 4482229 4608626 4646067 4598279 
620.484 4478547 4300885 4078675 3822649 3545327 3268383 3023310 2844208 
624.341 2764405 2799552 2942673 3162100 3413128 3645288 3817501 3907461 
628.198 3910002 3835151 3702329 3538145 3370884 3227956 3133331 3099925 
632.055 3127490 3202520 3303471 3408352 3505710 3599180 3707575 3855108 
635.912 4056266 4306808 4579292 4830236 5010663 5086354 5044417 4898625 
639.769 4679324 4425555 4171399 3938790 3737853 3570148 3434935 3333353 
643.626 3268817 3247818 3275727 3355992 3488608 3668244 3884426 4118612 
647.483 4345360 4536802 4668205 4729198 4729198 4699353 4678755 4701330 
651.340 4780719 4902445 5026316 5101809 5091819 4984820 4803735 4594059 
655.197 4410459 4291782 4249287 4265883 4308447 4344992 4360554 4362663 
659.054 4378494 4440049 4568209 4765879 5016159 5290566 5556184 5786001 
662.911 5961954 6073965 6118387 6094797 6003678 5846077 5626097 5356779 
666.767 5066206 4810938 4665324 4680563 4837407 5056652 5256758 5388447 
670.624 5437563 5406227 5304585 5146166 4953182 4754087 4579125 4457256 
674.481 4406442 4428668 4509581 4621553 4731107 4806884 4832012 4805477 
678.338 4742765 4665626 4596035 4547214 4519425 4502450 4482664 4450829 
682.195 4408250 4367382 4348239 4370194 4441689 4555250 4686525 4803031 
686.052 4870745 4866658 4785309 4640809 4463515 4289674 4152899 4073323 
689.909 4054928 4087137 4151662 4227638 4298040 4355032 4398443 4436066 
693.766 4479517 4543565 4640977 4780920 4966990 5195792 5456722 5733824 
697.623 6009624 6266909 6493168 6683304 6840804 6977419 7110168 7260782 
701.480 7449569 7694320 8005488 8383558 8814702 9270983 9715782 10107179 
705.337 10409799 10605733 10700642 10726011 10731990 10779540 10920049 
708.712 11186278 11587749 12112434 12734269 13422742 14152424 14905280 
712.086 15670162 16440935 17212184 17981142 18750912 19536430 20364972 
715.461 21273280 22298926 23465894 24776618 26204516 27702278 29202280 
718.836 30633914 31935420 33054124 33951516 34601608 34987292 35103632 
722.211 34961040 34584492 34008380 33274356 32423410 31490546 30509912 
725.586 29513366 28529858 27586068 26698862 25872686 25099432 24364316 
728.961 23653780 22964242 22306146 21701986 21176344 20743464 20400774 
732.335 20126444 19886798 19645896 19380080 19084578 18773262 18469772 
735.710 18198592 17974130 17795040 17645042 17498408 17329168 17116116 
739.085 16849638 16533034 16182059 15822263 15483296 15195068 14976715 
742.460 14834853 14758849 14727244 14710758 14683064 14629223 14546951 
745.835 14444551 14334917 14225891 14115251 13991257 13837094 13640074 
749.209 13398137 13122216 12830975 12545967 12282858 12046682 11834502 
752.584 11640260 11460359 11298964 11166934 11077735 11040483 11054248 
755.959 11105981 11173325 11234151 11271861 11283831 11280805 11282845 
759.334 11309914 11373446 11470838 11585231 11690497 11760009 11778597 
762.709 11746052 11679027 11603471 11548344 11532726 11559505 11615790 
766.083 11679198 11726545 11742681 11726512 11688489 11644209 11604730 
769.458 11570122 11527725 11458692 11344604 11177881 10965650 10728525 
772.833 10490919 10274511 10090630 9938726 9810260 9694098 9582844 9473311 
776.690 9365872 9259237 9149380 9027271 8883348 8712123 8515082 8303135 
780.547 8093114 7901584 7742045 7620432 7536442 7484795 7458468 7450244 
784.404 7451727 7453379 7443502 7409021 7339360 7231268 7091072 6935299 
788.261 6788163 6675060 6613389 6609386 6653796 6724289 6788634 6815223 
792.118 6779985 6673311 6503728 6297769 6094159 5932495 5844734 5843256 
795.975 5917246 6034553 6152396 6232656 6250975 6206976 6122117 6031999 
799.832 5968538 5952179 5984025 6048597 6122823 6186978 6233967 6269195 
803.689 6306140 6356302 6422577 6495488 6557512 6591421 6590008 6560843 
807.546 6526264 6513516 6548935 6646965 6807011 7013886 7243363 7469997 
811.402 7669869 7825805 7925744 7961616 7930468 7834779 7685450 7500976 
815.259 7308494 7138259 7017084 6964859 6987385 7075984 7208326 7357289 
819.116 7494807 7599357 7661168 7680189 7665890 7630986 7588600 7546657 
822.973 7508123 7471514 7432784 7389642 7342326 7294005 7249731 7213244 
826.830 7185418 7163320 7141796 7115456 7081170 7039814 6995096 6952840 
830.687 6916681 6887493 6861405 6832659 6795096 6745927 6687577 6626981 
834.544 6574264 6537868 6522530 6527038 6545302 6568378 6589705 6608343 
838.401 6629740 6664730 6725264 6819700 6948193 7101041 7261389 7410740 
842.258 7532464 7618206 7667104 7685248 7680357 7658538 7621612 7567493 
846.115 7493223 7399079 7290804 7180433 7082079 7007353 6961661 6940786 
849.972 6934827 6929541 6914762 6886888 6850802 6818353 6805362 6827307 
853.829 6893149 7005198 7155775 7328847 7500201 7644206 7737660 7765387 
857.686 7725923 7631222 7505359 7375723 7267892 7196838 7164533 7162108 
861.543 7176727 7197883 7221195 7247676 7279415 7313009 7337339 7334306 
865.400 7286996 7189023 7050995 6900959 6774937 6707867 6718198 6802232 
869.256 6934827 7080968 7206170 7286962 7318097 7309909 7281739 7253774 
873.113 7242993 7260647 7313817 7407033 7542477 7717220 7920581 8134131 
876.970 8333025 8490079 8584899 8606866 8558809 8453792 8312659 8157696 
880.827 8009910 7890550 7817674 7806643 7866257 7994217 8174713 8378829 
884.684 8573240 8725139 8813923 8835903 8802698 8736396 8658207 8583513 
888.541 8516772 8454535 8389638 8317320 8237113 8152430 8069012 7992563 
892.398 7929895 7889335 7883093 7924326 8022837 8177009 8370823 8571482 
896.255 8736160 8827550 8820923 8715640 8532688 8308370 8079341 7870238 
900.112 7689733 7532700 7388732 7251416 7124618 7022236 6962435 6957183 
903.969 7008565 7105386 7227832 7352874 7462749 7547804 7606539 7643430 
907.826 7664338 7675535 7682414 7690846 7706630 7735198 7779858 7840109 
911.683 7911538 7986758 8058481 8122889 8179777 8232351 8284391 8337687 
915.540 8390686 8438961 8477915 8505249 8522551 8534546 8546745 8563168 
919.397 8584696 8608860 8631167 8646986 8653137 8647357 8628530 8595645 
923.254 8547387 8483524 8405245 8315699 8220060 8123261 8029216 7940119 
927.110 7857316 7782793 7720155 7675872 7656278 7666968 7710273 7783501 
930.967 7881203 7996511 8123598 8258860 8400786 8547387 8694782 8836545 
934.824 8964419 9071354 9155031 9219332 9273961 9330256 9398002 9481405 
938.681 9577458 9677529 9772135 9853880 9920285 9974527 10023352 10073707 
942.538 10129326 10189802 10249948 10302366 10340470 10361339 10368058 
945.913 10370094 10380851 10414687 10482670 10587942 10724586 10878394 
949.288 11032768 11173019 11291925 11392392 11485535 11584925 11699076 
952.663 11826978 11956553 12068689 12144530 12174175 12160716 12120850 
956.037 12076457 12049100 12050906 12080920 12127222 12173085 12203141 
959.412 12208287 12188044 12148006 12097068 12043412 11994087 11955462 
962.787 11934075 11938093 11975150 12049816 12160580 12297821 12444823 
966.162 12579256 12680363 12731744 12726046 12664806 12558552 12423104 
969.537 12275836 12134649 12013503 11921814 11863923 11839917 11847067 
972.912 11881289 11938025 12012072 12095433 12177720 12243219 12273962 
976.286 12253444 12171109 12026822 11833549 11616335 11403889 11222387 
979.661 11088237 11003065 10955524 10925179 10890897 10835350 10750737 
983.036 10638296 10506601 10367176 10231086 10107214 10000838 9914589 
986.411 9849271 9804363 9778743 9769999 9775287 9789214 9805176 9815683 
990.268 9812802 9790536 9746550 9683290 9608452 9534170 9475106 9443172 
994.125 9445881 9483132 9547616 9626068 9702297 9761223 9790163 9781352 
997.982 9732420 9646665 9532917 9405452 9283541 9186741 9132867 9131514 
1001.839 9180819 9265973 9362892 9444053 9484046 9466505 9387777 9255277 
1005.695 9083331 8889368 8689812 8496364 8318232 8161681 8030161 7925272 
1009.552 7845575 7787684 7747644 7723595 7717322 7735029 7783704 7868011 
1013.409 7984935 8122247 8258151 8367141 8427305 8424839 8358291 8237248 
1017.266 8077889 7896960 7709632 7528958 7367129 7239792 7165207 7160390 
1021.123 7237367 7395473 7618746 7874725 8122856 8322352 8440447 8462441 
1024.980 8392137 8249810 8063881 7867302 7689463 7551951 7468547 7443030 
1028.838 7470334 7536644 7622084 7702515 7752266 7751490 7689430 7569382 
1032.695 7407370 7231639 7074805 6964186 6916984 6933918 6999877 7089118 
1036.553 7175851 7242218 7284199 7310718 7339125 7383677 7447008 7515607 
1040.410 7561661 7555255 7472390 7308460 7081271 6828552 6592901 6411144 
1044.267 6302577 6264085 6274372 6302711 6322446 6316798 6285465 6241261 
1048.125 6207514 6208993 6266304 6392145 6586745 6836732 7114783 7387114 
1051.982 7614834 7765016 7819732 7779689 7665890 7512236 7357929 7232414 
1055.840 7148836 7102961 7078173 7054733 7018869 6968159 6911126 6861842 
1059.697 6832154 6827778 6846863 6882679 6927959 6978732 7034292 7094709 
1063.555 7156718 7212166 7248384 7253505 7221229 7155741 7071639 6990954 
1067.412 6935433 6919408 6946140 7007521 7086694 7164297 7226586 7267689 
1071.269 7291545 7308763 7333194 7375656 7439896 7520361 7604044 7673646 
1075.127 7712769 7712060 7671926 7603369 7523934 7452772 7404202 7383474 
1078.984 7387553 7407437 7434469 7463322 7495043 7534048 7584959 7647476 
1082.842 7714691 7773280 7809612 7812378 7778239 7710711 7619454 7514764 
1086.699 7404101 7291949 7180433 7071740 6970920 6885675 6824075 6792067 
1090.557 6790688 6815324 6855581 6900555 6938430 6960348 6960987 6937117 
1094.414 6887830 6814382 6720924 6615374 6509144 6416928 6351494 6322681 
1098.271 6333439 6379334 6449043 6527239 6598519 6650397 6677482 6681823 
1102.129 6672906 6663149 6665471 6687443 6728529 6778167 6819498 6835587 
1105.986 6814046 6754306 6668263 6578268 6507395 6473123 6479950 6518629 
1109.844 6570295 6614634 6639698 6646326 6648715 6667187 6722034 6822157 
1113.701 6962031 7120879 7269947 7378251 7421223 7387822 7280830 7117140 
1117.558 6922034 6727418 6565014 6460074 6430278 6479446 6598789 6766994 
1121.416 6957722 7141493 7293061 7396079 7444615 7442659 7401842 7339158 
1125.273 7272777 7219949 7195457 7209000 7263478 7355503 7475457 7610518 
1129.131 7747543 7877222 7994284 8097402 8187475 8263554 8322116 8357378 
1132.988 8363729 8340119 8292564 8235120 8185348 8161275 8175929 8232891 
1136.846 8328365 8452541 8593990 8742008 8889436 9031703 9165116 9287028 
1140.703 9394718 9487026 9565569 9634706 9701111 9770779 9847339 9930963 
1144.560 10018503 10105416 10187733 10263281 10331037 10390523 10440820 
1147.936 10480362 10509418 10531891 10556742 10596294 10663932 10767142 
1151.311 10903774 11059992 11213546 11339333 11416271 11435593 11402053 
1154.686 11333381 11252071 11180499 11133652 11114921 11117334 11126819 
1158.061 11127703 11107171 11058871 10985121 10895382 10801720 10717148 
1161.437 10650112 10603458 10574089 10556266 10544724 10537900 10539155 
1164.812 10555112 10592254 10652320 10729442 10810111 10877681 10916210 
1168.187 10916550 10879176 10813610 10734740 10656157 10587059 10529582 
1171.562 10479208 10427787 10367277 10291407 10196078 10079303 9940286 
1174.938 9779454 9600052 9410056 9221972 9051155 8913448 8819266 8770881 
1178.795 8760570 8773958 8791979 8798099 8783189 8747079 8697757 8647425 
1182.652 8608691 8589393 8590914 8607812 8631032 8650737 8659829 8656044 
1186.510 8643200 8629511 8623866 8634445 8665035 8713307 8772200 8831541 
1190.367 8881556 8913685 8924609 8914530 8888557 8853656 8818218 8790255 
1194.225 8775277 8776426 8792182 8816865 8839927 8849192 8833366 8784304 
1198.082 8700663 8589292 8462542 8334985 8220600 8128256 8060910 8017606 
1201.940 7996039 7994352 8013522 8055273 8120458 8206554 8306107 8407846 
1205.797 8499336 8570570 8617175 8640901 8648236 8648371 8649824 8657700 
1209.654 8673317 8694985 8719730 8744173 8766824 8786907 8805842 8825522 
1213.512 8848347 8877126 8913144 8956504 9004707 9053659 9097474 9131818 
1217.369 9154964 9169786 9182882 9203662 9240892 9299890 9379821 9474869 
1221.227 9575865 9672990 9759665 9833985 9899064 9960729 10025386 10096734 
1225.084 10175217 10257683 10339724 10417877 10490919 10560747 10630961 
1228.459 10704684 10781918 10857943 10923175 10966125 10976388 10948149 
1231.835 10883593 10792855 10691337 10594699 10514340 10452699 10402130 
1235.210 10347426 10271932 10163209 10017520 9842018 9652933 9471754 9316817 
1239.067 9201632 9130769 9099876 9098556 9112971 9130194 9139229 9134660 
1242.925 9116117 9088304 9059140 9037690 9031567 9044524 9075820 9119941 
1246.782 9170564 9220449 9265195 9303513 9335436 9361911 9381513 9391163 
1250.640 9386694 9364855 9325415 9271998 9212293 9154795 9106542 9071760 
1254.497 9050749 9041344 9040566 9046081 9056298 9069865 9084819 9098116 
1258.354 9106643 9108707 9105425 9101534 9103835 9119061 9150565 9197502 
1262.212 9254972 9316613 9376300 9430237 9476223 9514120 9542638 9560758 
1266.069 9567195 9562249 9548429 9530851 9514933 9503926 9498101 9494104 
1269.927 9487162 9474666 9458072 9444290 9443545 9464812 9512732 9584470 
1273.784 9670584 9757360 9831714 9884928 9913640 9920590 9911945 9895369 
1277.641 9877031 9861168 9850627 9846661 9849474 9858727 9873539 9892115 
1281.499 9913505 9936998 9963034 9992192 10024199 10056413 10084830 10104840 
1285.356 10113996 10114302 10113827 10124544 10158258 10222808 10318075 
1288.732 10435389 10560170 10679044 10782427 10869051 10944548 11018460 
1292.107 11099353 11190324 11288830 11388345 11481146 11562125 11630187 
1295.482 11688524 11742068 11794769 11848872 11903969 11958903 12012890 
1298.857 12065623 12118499 12172199 12225769 12277097 12322670 12360168 
1302.233 12388634 12410284 12429139 12450995 12480524 12520253 12569875 
1305.608 12625918 12682273 12730277 12760883 12765524 12738056 12676269 
1308.983 12583450 12466543 12335180 12199222 12066747 11942282 11828237 
1312.358 11725490 11635189 11559641 11500777 11459985 11435287 11421680 
1315.734 11411475 11395964 11368413 11325525 11268188 11200048 11126989 
1319.109 11054622 10986446 10925418 10873706 10833653 10807971 10799343 
1322.484 10808786 10835418 10876050 10925383 10977475 11026991 11069271 
1325.859 11101732 11123589 11136473 11144225 11153879 11174787 11216028 
1329.234 11285803 11387597 11520103 11676339 11846318 12020725 12192611 
1332.610 12360134 12525812 12695612 12875309 13069184 13278414 13502067 
1335.985 13737394 13981505 14231677 14483673 14731083 14963751 15168304 
1339.360 15332551 15449923 15523713 15565300 15590440 15613589 15643438 
1342.735 15683526 15732961 15789412 15851405 15919935 15998067 16090140 
1346.111 16199840 16328834 16476864 16642226 16822842 17016452 17220354 
1349.486 17430628 17640522 17841540 18023276 18177344 18299358 18391124 
1352.861 18460644 18521082 18587960 18674704 18791356 18942650 19128760 
1356.236 19347548 19596740 19876182 20188640 20540436 20942028 21409392 
1359.612 21964280 22636380 23461350 24471500 25685492 27088170 28621194 
1362.987 30185396 31670384 32988020 34084392 34941256 35557264 35936348 
1366.362 36087112 36030372 35811868 35503000 35204052 35017784 35023572 
1369.737 35271500 35779412 36550380 37593644 38937372 40628556 42712532 
1373.113 45197552 48007220 50958824 53806656 56300900 58273280 59653720 
1376.488 60428840 60601912 60163804 59099544 57419236 55187392 52532856 
1379.863 49611648 46586340 43587268 40701476 37993100 35506232 33268522 
1383.238 31289094 29549470 28005292 26594366 25256312 23946208 22651600 
1386.614 21397768 20234808 19211454 18350442 17641006 17052702 16554132 
1389.989 16120914 15739489 15400519 15094162 14805643 14517555 14212607 
1393.364 13881942 13528660 13169345 12825686 12514490 12238856 11991839 
1396.739 11762937 11547799 11350319 11180532 11048436 10957460 10901090 
1400.115 10868372 10848498 10835453 10827742 10824140 10819826 10806306 
1403.490 10772102 10710049 10622337 10523133 10432029 10365716 10330053 
1406.865 10319907 10324759 10336093 10352211 10377933 10420389 10482704 
1410.240 10558846 10635545 10696635 10732736 10747103 10754915 10776551 
1413.616 10827368 10912642 11025324 11151635 11277438 11395862 11509147 
1416.991 11626920 11757728 11901721 12046750 12174312 12275734 12360475 
1420.366 12449903 12566090 12720280 12914084 13142535 13400665 13685346 
1423.741 13997417 14338170 14704759 15087781 15474987 15856799 16234957 
1427.117 16625185 17058320 17572824 18202980 18965114 19847882 20816872 
1430.492 21828514 22848910 23858966 24852816 25832244 26798942 27756314 
1433.867 28714814 29696400 30740414 31896692 33203748 34646496 36140292 
1437.242 37564344 38830040 39920240 40876692 41764224 42649840 43586092 
1440.618 44605808 45720088 46922424 48194440 49513340 50860432 52219976 
1443.993 53578688 54926516 56256960 57572616 58889920 60238480 61652988 
1447.368 63157336 64756364 66429756 68150904 69909872 71720464 73617224 
1450.743 75635008 77787224 80046096 82344808 84603568 86748176 88746096 
1454.119 90608672 92373712 94084192 95755216 97343664 98734768 99806032 
1457.494 100526200 100973512 101273328 101502024 101679576 101801320 
1460.387 101864160 101874256 101841792 101768488 101633520 101382448 
1463.280 100933208 100185960 99061840 97540680 95655552 93456632 90970448 
1466.655 88181880 85072208 81651392 77981000 74145992 70243008 66337212 
1470.030 62413596 58396256 54171800 49679252 45019560 40506728 36536212 
1473.406 33345978 30916708 29050912 27513552 26144654 24870254 23690658 
1476.781 22637008 21733268 20971724 20317644 19725154 19156184 18589274 
1480.156 18020616 17459224 16919084 16411480 15942140 15512277 15122603 
1483.531 14774789 14470483 14207540 13977365 13764754 13552588 13327680 
1486.907 13086017 12833296 12578540 12325772 12068280 11790479 11481010 
1490.282 11147352 10814459 10512270 10259141 10057770 9897809 9763934 
1493.657 9641719 9522181 9403759 9292105 9194490 9114629 9045979 8974669 
1497.515 8886730 8777880 8654421 8528667 8409671 8299487 8192641 8081603 
1501.372 7961346 7833868 7707406 7594805 7509371 7460963 7455030 7491402 
1505.229 7563582 7655233 7740595 7789539 7785188 7735771 7663023 7584184 
1509.087 7509404 7446704 7404505 7390451 7409797 7462513 7541938 7637461 
1512.944 7738841 7838726 7931919 8013791 8074784 8098481 8065602 7963505 
1516.802 7799997 7604415 7416908 7266914 7165442 7106632 7071841 7032810 
1520.659 6957587 6825725 6641011 6432027 6230269 6053267 5903340 5776196 
1524.516 5669298 5582899 5518195 5472995 5438603 5400558 5346212 5271012 
1528.374 5180702 5088768 5009724 4955026 4928148 4925333 4935822 4945709 
1532.231 4941251 4912967 4860526 4794623 4730169 4677750 4640708 4619175 
1536.089 4613583 4627882 4668807 4743602 4854494 4992127 5125009 5202096 
1539.946 5180333 5060139 4889242 4721327 4587195 4490298 4421271 4369056 
1543.804 4328259 4298676 4282346 4279703 4287533 4300851 4315207 4328895 
1547.661 4342482 4358045 4376519 4395932 4411597 4418158 4413940 4403095 
1551.518 4394359 4397405 4418760 4459699 4514671 4572562 4622557 4660870 
1555.376 4693927 4735161 4799078 4894637 5015489 5126920 5154347 5028528 
1559.233 4779513 4533755 4378862 4321432 4329263 4369692 4417856 4457624 
1563.091 4479618 4479015 4456586 4417823 4372235 4329597 4297505 4280941 
1566.948 4281108 4297271 4325113 4356337 4378059 4377423 4348941 4298475 
1570.806 4238546 4180164 4128747 4083056 4038641 3990518 3935245 3874096 
1574.663 3814894 3770773 3756636 3778160 3825323 3876436 3914215 3931300 
1578.520 3929562 3914282 3889909 3858317 3819607 3772378 3716665 3655312 
1582.378 3593601 3537711 3492750 3460986 3441415 3430427 3424115 3419874 
1586.235 3417436 3417703 3421577 3427755 3432999 3432197 3421143 3398601 
1590.093 3367479 3334622 3308579 3298196 3310349 3348078 3410389 3492950 
1593.950 3588389 3687024 3778695 3854740 3909300 3941231 3955542 3960190 
1597.807 3963834 3973263 3990752 4013693 4036032 4050112 4049510 4030548 
1601.665 3993495 3941465 3879880 3815496 3755499 3707675 3678135 3671385 
1605.522 3687826 3723482 3769938 3815195 3848054 3860122 3849859 3821913 
1609.380 3785380 3748013 3713925 3682679 3650200 3612077 3565638 3510754 
1613.237 3449564 3384542 3317794 3250589 3184462 3122484 3070692 3035890 
1617.095 3022076 3027014 3043998 3066321 3089646 3112973 3136902 3162367 
1620.952 3188701 3210732 3218576 3200117 3146480 3060214 2957385 2859750 
1624.809 2783579 2737229 2719257 2721724 2732928 2742264 2743131 2735928 
1628.667 2726659 2723391 2731327 2751033 2777743 2804755 2826298 2838272 
1632.524 2839739 2832535 2819929 2805655 2791315 2774709 2749766 2709121 
1636.382 2649011 2572410 2485691 2395325 2307343 2227972 2164231 2122709 
1640.239 2108625 2123475 2163632 2221477 2288257 2356313 2421114 2482126 
1644.097 2541046 2600608 2661646 2719624 2763304 2777910 2754534 2698285 
1647.954 2625209 2553411 2493323 2450802 2428711 2431310 2465597 2543779 
1651.811 2678248 2866354 3062951 3181058 3166773 3051505 2898541 2749166 
1655.669 2616775 2501521 2398324 2301447 2207024 2114618 2027259 1951533 
1659.526 1895354 1866669 1870828 1909365 1976962 2060849 2143586 2207556 
1663.384 2242393 2248821 2235632 2213551 2191105 2174388 2166163 2167728 
1667.241 2179183 2198865 2223442 2245923 2257880 2250453 2219179 2166429 
1671.099 2099003 2025228 1952864 1888765 1838251 1805743 1795895 1810035 
1674.956 1844340 1887966 1928102 1954761 1964680 1959354 1942946 1919782 
1678.813 1895055 1874422 1864173 1870362 1898016 1951067 2032918 2146417 
1682.671 2291854 2457867 2612075 2709788 2725959 2678881 2607575 2542446 
1686.528 2496688 2473561 2471895 2488657 2519383 2558078 2598242 2632909 
1690.386 2657145 2668713 2668646 2660045 2647010 2632976 2620409 2609242 
1694.243 2598309 2585709 2571776 2561144 2561877 2582676 2627609 2697952 
1698.100 2793816 2914619 3056310 3204790 3334789 3422011 3461654 3468701 
1701.958 3462957 3458080 3460185 3472876 3497894 3535840 3584881 3639541 
1705.815 3691869 3734444 3764624 3784343 3799351 3815329 3836120 3861493 
1709.673 3887669 3907729 3914282 3902179 3869182 3816064 3745139 3659155 
1713.530 3559324 3447059 3323170 3189870 3051138 2913752 2785680 2675948 
1717.388 2592009 2537014 2507986 2499421 2505853 2524149 2552612 2589809 
1721.245 2631909 2673381 2705820 2720791 2713389 2684983 2643410 2600608 
1725.102 2569510 2558278 2570443 2604575 2655111 2714656 2775409 2831334 
1728.960 2877261 2911050 2931999 2941506 2942840 2939738 2938437 2947244 
1732.817 2977202 3038759 3133164 3243879 3343571 3412861 3447092 3452336 
1736.675 3437307 3410957 3382105 3359498 3352219 3365508 3398668 3443485 
1740.532 3488608 3522846 3538579 3531898 3501034 3446257 3369716 3275794 
1744.390 3170577 3061916 2958186 2865787 2789581 2730027 2683682 2642110 
1748.247 2595109 2533981 2454268 2358078 2252684 2148514 2054656 1976662 
1752.104 1916420 1872891 1844474 1829600 1826738 1833160 1844340 1852759 
1755.962 1849731 1828036 1786113 1729457 1667520 1609150 1560331 1522424 
1759.819 1494129 1472884 1455762 1439738 1422551 1402573 1378872 1351916 
1763.677 1323399 1296812 1275743 1263913 1263547 1274015 1291661 1309441 
1767.534 1321106 1323566 1320076 1319611 1333337 1370097 1432757 1514909 
1771.391 1599638 1662065 1679527 1645800 1571604 1476142 1375848 1281525 
1775.249 1198553 1129748 1077861 1044314 1029368 1030995 1045078 1065073 
1779.106 1084670 1098456 1104468 1104368 1102110 1101943 1105398 1110414 
1782.964 1113039 1108620 1094137 1069258 1037439 1003297 971515 944285 
1786.821 921473 901385 882094 862274 841060 819050 797008 776593 760760 
1791.161 753724 760196 782269 817124 856895 890793 909619 907727 883788 
1795.500 841292 787879 733975 689436 661859 654758 667434 695742 734407 
1799.840 778718 824892 870806 915231 956870 993832 1024020 1045177 1056038 
1804.180 1056437 1047668 1031626 1011068 988086 964276 939836 913869 884385 
1808.519 849459 808460 762818 716949 677954 653530 649979 668828 706461 
1812.859 755416 807033 852845 887174 907229 913239 908059 896272 882825 
1817.198 871570 864199 859717 854970 845774 828146 800161 762553 718940 
1821.538 674137 633155 598083 567725 536904 498887 448501 386282 320292 
1825.878 264390 231801 231834 268634 340088 439878 556511 676560 785589 
1830.217 874226 940068 987090 1020832 1044646 1059327 1063180 1054045 
1834.075 1030165 991872 941131 882360 821705 766835 726773 708884 717878 
1838.414 752064 803315 857427 899127 915828 899791 850720 775763 688640 
1842.754 606013 544103 512687 511128 528677 551004 566995 570611 560492 
1847.093 537932 505588 467739 431354 406579 403693 431254 491423 578839 
1851.433 679646 774270 842753 869179 848795 789240 708486 627116 562582 
1855.773 524231 510730 512123 513947 503531 473412 424488 365522 311107 
1860.112 277188 277884 321883 410791 537236 686815 841458 978622 1077097 
1864.452 1121343 1103106 1025980 903377 757740 613213 492684 411089 371492 
1868.791 363864 370729 378489 381606 383331 390627 409232 439347 475203 
1873.131 506384 522805 517995 491556 449231 401040 356104 320557 296584 
1877.471 283852 281531 291677 317341 361543 423095 494740 563710 615370 
1881.810 638199 627216 585409 520682 444289 365589 289422 218839 156752 
1886.150 110350 91658 113996 186385 305603 452349 590485 679480 691494 
1890.489 621011 487708 327023 176540 62528 -3147 -24087 -13617 11100 36316 
1895.311 56696 74723 96961 129540 175115 232464 299402 373780 455036 542378 
1900.133 632525 718144 787846 829142 833192 798701 733411 651008 567028 
1904.473 491324 426379 366882 305006 234121 155061 75253 8846 -28792 -26572 
1909.294 19218 103059 210750 322314 417424 476961 485618 435002 323939 
1913.634 162950 -29057 -224690 -396334 -523566 -596367 -617973 -602455 
1917.491 -570822 -540841 -520290 -505364 -485903 -452871 -404146 -346410 
1921.349 -293071 -258169 -249262 -262872 -286150 -304064 -308931 -305123 
1925.206 -307408 -334061 -395010 -484944 -580650 -648412 -650960 -563840 
1929.064 -384284 -133774 148465 418684 638697 788775 866025 880800 846471 
1933.403 776294 678286 555449 409199 242343 60043 -127812 -308500 -468527 
1937.743 -592430 -666046 -677460 -616782 -479085 -269494 -7455 273044 519686 
1942.082 678618 709581 597486 358160 31677 -328466 -670744 -949014 -1129956 
1946.422 -1198691 -1155469 -1017843 -814135 -580087 -348330 -140863 33201 
1950.279 177966 303116 414074 505223 556876 541548 437423 239956 -28428 
1954.619 -322671 -579723 -742131 -773189 -669718 -462867 -209456 24586 
1958.476 185291 238067 175115 12359 -213098 -453169 -662473 -798921 -837218 
1962.816 -771403 -617576 -409774 -196705 -24651 78799 111245 99844 89172 
1967.156 125728 234917 409497 610028 782502 875786 852247 696074 413908 
1971.495 31876 -410833 -861921 -1264639 -1565343 -1712696 -1671638 -1436104 
1975.353 -1041478 -560862 -94123 257362 429331 403130 208960 -91175 -424802 
1979.692 -734754 -995926 -1207513 -1387026 -1551311 -1708175 -1852675 
1983.068 -1970213 -2042343 -2059195 -2018532 -1928420 -1803711 -1661505 
1986.443 -1517073 -1381213 -1251192 -1112143 -938600 -699393 -371935 43805 
1990.300 516435 985263 1365909 1580583 1588730 1396589 1059194 655786 269330 
1994.640 -41249 -248964 -356806 -384582 -356707 -292375 -202534 -96243 13518 
1998.979 108361 168088 179524 146410 91559 46721 39232 74491 129109 153802 
2003.801 93945 -82562 -367830 -705744 -1008587 -1181112 -1163466 -952684 
2007.659 -605532 -214655 124966 344067 420608 378854 272314 155128 68857 
2011.998 29655 27734 41353 46588 24784 -31774 -121916 -238433 -369121 
2016.338 -497454 -603713 -665318 -665781 -599676 -477993 -326181 -180377 
2020.195 -75075 -31211 -48803 -102802 -151561 -149905 -71861 81848 277155 
2024.535 462300 580498 598182 520350 391290 275596 235381 304210 469895 
2028.874 676792 841491 894545 800294 575687 282294 10801 -158119 -177628 
2033.214 -51652 168685 407905 588892 660266 601865 426147 165602 -133244 
2037.554 -423710 -667402 -830406 -890094 -838309 -684341 -456479 -198361 
2041.411 45130 243073 383828 479349 552928 625689 704736 776792 811879 
2045.751 778220 658740 458651 208595 -45391 -257242 -401266 -475842 -501690 
2050.090 -504735 -504239 -502088 -482230 -418943 -290355 -90446 163381 
2053.948 432548 664248 803315 814867 688607 446677 135042 -182927 -446516 
2058.287 -609305 -646990 -565958 -398518 -196208 -10039 119961 176839 168419 
2062.627 124999 87648 90498 152244 265219 398022 500678 527250 445483 252488 
2067.448 -24750 -333597 -608312 -790884 -839401 -741039 -512877 -199288 
2071.306 142930 457424 695244 827581 842122 741941 542444 267805 -50095 
2075.646 -378954 -685234 -940385 -1127147 -1240686 -1289218 -1291432 
2079.021 -1269561 -1240455 -1210123 -1174304 -1121232 -1038635 -921605 
2082.396 -774744 -611058 -447708 -298269 -173455 -79680 -23491 -14644 -64440 
2086.736 -181106 -360481 -581775 -803320 -970305 -1033115 -957280 -742395 
2090.593 -421988 -60100 274436 521246 644769 641683 535776 369369 184463 
2094.933 15440 -119067 -216708 -286779 -342801 -397426 -460385 -534851 
2098.790 -618602 -703164 -775935 -822336 -830306 -794952 -720828 -621911 
2102.647 -516782 -424736 -358163 -319327 -303368 -299925 -298633 -292475 
2106.505 -279130 -258368 -230949 -195181 -148415 -89982 -22265 45793 101468 
2110.844 131429 124436 75320 -14644 -138776 -288336 -452342 -619098 -776001 
2115.184 -908479 -1002604 -1049543 -1049543 -1013116 -961875 -920448 -905668 
2119.042 -921506 -952816 -972124 -946667 -852364 -684705 -461245 -216510 
2122.899 10039 181844 279675 301458 260544 175811 66273 -55694 -184053 
2127.239 -315685 -446880 -571020 -678154 -758173 -802857 -806594 -766641 
2131.096 -680735 -549015 -374915 -170341 39696 220894 330637 331765 205347 
2135.436 -39659 -366175 -717851 -1032355 -1265333 -1396637 -1433693 -1402615 
2139.293 -1337118 -1264408 -1198889 -1143671 -1098494 -1067161 -1063558 
2142.668 -1106558 -1211775 -1378571 -1583501 -1782163 -1917930 -1944023 
2146.043 -1834759 -1595616 -1259650 -877000 -494078 -137020 189667 500380 
2149.901 810983 1124034 1421288 1662198 1796560 1784449 1606123 1271755 
2153.758 816394 294595 -240618 -748713 -1210718 -1627241 -2010815 -2370521 
2157.616 -2696936 -2961736 -3123058 -3143026 -3001751 -2710174 -2301412 
2160.991 -1825719 -1336094 -877727 -485804 -180476 31776 153769 190529 
2164.848 147637 32207 -148249 -376537 -628197 -875611 -1089306 -1248483 
2168.706 -1345276 -1381147 -1366647 -1314721 -1235135 -1132369 -1010604 
2172.081 -877529 -750764 -660984 -642258 -719968 -897567 -1147934 -1416850 
2175.938 -1636154 -1748537 -1722960 -1567555 -1321955 -1050072 -813341 
2179.314 -652713 -582403 -588029 -636998 -687351 -702337 -654103 -527240 
2183.171 -320519 -46285 265683 572336 816261 939404 900322 682334 302486 
2187.511 -192863 -736078 -1260509 -1710287 -2050027 -2270429 -2377375 
2190.886 -2383867 -2301511 -2136190 -1891506 -1574059 -1200178 -795482 
2194.261 -396069 -43005 225668 377295 392451 269297 25613 -300521 -662109 
2198.601 -1006868 -1291498 -1492044 -1605223 -1646849 -1643020 -1617437 
2201.976 -1580464 -1527176 -1441883 -1309370 -1126123 -906858 -680470 
2205.351 -484480 -349589 -290190 -304196 -375842 -483421 -606095 -729826 
2209.209 -844295 -941741 -1014009 -1052584 -1051989 -1012091 -939162 -843435 
2213.066 -733398 -612481 -480707 -337736 -193989 -73352 -13816 -57318 
2216.924 -231512 -539947 -953378 -1419657 -1872107 -2253685 -2529658 
2220.299 -2689231 -2741158 -2699472 -2572052 -2357307 -2051577 -1661802 
2223.674 -1214881 -763333 -371969 -98032 21471 -13187 -167294 -381635 
2227.531 -595474 -760753 -854315 -878984 -856068 -812977 -772429 -748482 
2231.389 -744512 -754799 -769684 -779143 -774182 -751426 -712724 -667502 
2235.246 -630182 -615293 -633756 -687450 -767302 -856696 -936880 -994009 
2239.104 -1021711 -1023364 -1004984 -971297 -922465 -853257 -759562 -643714 
2242.961 -517510 -401001 -314030 -267773 -258832 -269428 -272971 -247705 
2246.819 -185444 -97800 -9575 47848 51824 -2750 -101411 -214688 -309692 
2251.158 -359156 -350979 -290024 -196076 -95084 -14611 22134 2783 -74180 
2255.498 -197367 -345715 -490305 -601496 -656088 -641961 -561193 -428774 
2259.355 -268203 -101577 53183 185656 292042 371193 421172 439214 423526 
2263.695 376201 307493 235381 180551 161160 186120 250333 337833 425085 
2268.034 490262 517663 501474 445483 361112 263031 166298 85527 31743 11729 
2272.856 26011 67896 122911 172596 200474 195468 157382 95801 27270 -31012 
2277.678 -67720 -80176 -74147 -60100 -49068 -46948 -54270 -66196 -76201 
2282.018 -77592 -65368 -36445 11199 78236 163547 262467 367446 467706 551037 
2286.839 609231 639195 644272 633653 618854 609829 612218 626353 647723 
2291.179 670520 688275 696306 691793 674038 643807 605283 565236 532624 
2295.519 518194 530601 571739 635976 709880 774967 812975 813074 773971 
2299.858 705200 622603 543572 481273 441204 421304 415832 417988 423891 
2304.198 433510 449132 473213 506483 546857 590584 634084 675465 714593 
2308.537 752263 788410 820743 844612 854870 848961 827747 797539 766702 
2312.877 744331 736033 742107 758802 779116 797074 808991 814502 815896 
2317.217 815830 815697 814568 810618 801887 789373 777954 774668 788145 
2321.556 824959 886344 967497 1058828 1146990 1218754 1265375 1282622 
2325.414 1272852 1243343 1205132 1170644 1149913 1149681 1171043 1209185 
2329.271 1254807 1297776 1329681 1346266 1348526 1341579 1331276 1322236 
2333.128 1315855 1310305 1302428 1289069 1268764 1241981 1210979 1178020 
2336.986 1145960 1116992 1094702 1084239 1091879 1123569 1181841 1261952 
2340.843 1352514 1434884 1489441 1501610 1466367 1390573 1291628 1192207 
2344.701 1111245 1060622 1041125 1045443 1062914 1085135 1108654 1134930 
2348.558 1167986 1211411 1266837 1332306 1401276 1463741 1509190 1527777 
2352.416 1514743 1470490 1400645 1313562 1219718 1130479 1058330 1016415 
2356.273 1018374 1075536 1192738 1365876 1581314 1815226 2039043 2229004 
2360.130 2368672 2456634 2504553 2533414 2563277 2606708 2661579 2711288 
2363.988 2728126 2683116 2558444 2353281 2087483 1797226 1527910 1319245 
2367.845 1196194 1163435 1205231 1291894 1387980 1464871 1504170 1502873 
2371.703 1469326 1420291 1373887 1342311 1330213 1333071 1339053 1332439 
2375.560 1300999 1237894 1145628 1035014 922303 824693 753724 713232 697932 
2379.900 696041 692556 676527 642845 594798 541548 495304 466877 461935 
2384.239 480046 515507 560227 605349 645002 676461 699359 714559 723587 
2388.579 726773 724051 715455 701649 684989 669292 659403 659934 675133 
2392.918 706163 751533 805306 858522 900256 920145 911612 874624 816394 
2397.258 749575 690000 651539 641716 660200 699658 748247 793921 828610 
2401.598 849791 859684 862672 862672 860381 853509 837109 807199 762188 
2405.937 703939 638000 571640 512886 468370 442929 438982 456595 492949 
2410.277 542444 597917 650311 691793 717281 725545 719836 706860 694746 
2414.616 690034 696970 715986 744696 778618 812377 840694 858124 859120 
2418.956 839898 798004 734971 656550 573896 499948 448203 428999 445284 
2423.296 493115 561686 637204 704935 754022 779182 781406 766104 741310 
2427.635 715787 695841 685255 684823 693717 709647 730888 756279 784593 
2431.975 814867 844977 871802 891889 902481 903112 895907 885747 877679 
2436.314 875322 877347 878011 868217 838470 784361 708951 624362 547454 
2440.654 496465 483794 511692 571076 644006 710743 754354 766702 749674 
2444.994 713365 670421 631596 602761 583849 571042 560956 552895 550307 
2449.333 559795 586603 633255 695709 764113 824660 864664 875521 856099 
2453.673 813406 760428 713033 684558 682633 707225 750803 799564 838769 
2458.012 856165 844678 805439 746820 681969 624661 586437 572668 582124 
2462.352 607440 638000 663618 676726 675233 661826 643110 626419 618124 
2466.692 621409 636142 658839 684226 707590 725113 735170 738622 738456 
2471.031 738389 742372 753292 771216 794186 817191 834154 839034 827880 
2475.371 800128 759765 713365 668496 632060 607440 594267 590020 591646 
2479.710 597718 609796 631961 668728 721861 789107 862108 929608 980083 
2484.050 1005422 1003629 979950 944783 909487 883788 872732 875587 886975 
2488.390 900024 908656 909321 902082 889864 876749 867187 864399 869578 
2492.729 882659 901783 924030 946610 967231 984666 1000009 1016083 1036774 
2497.069 1065571 1104767 1153701 1208953 1264909 1315489 1355273 1380933 
2500.926 1391537 1387980 1371959 1345069 1308843 1264909 1215332 1163601 
2504.784 1114334 1072546 1042188 1025216 1020434 1023854 1030198 1034018 
2508.641 1032124 1024485 1014190 1006452 1006584 1018341 1041989 1074240 
2512.499 1108155 1136093 1150279 1145761 1120945 1077894 1021795 959029 
2516.356 897102 842852 801755 778054 774071 789638 821938 865361 912076 
2520.696 952886 980913 991905 985695 967497 945016 926686 919713 928247 
2525.035 952520 990179 1037272 1089952 1144000 1195961 1241914 1277903 
2528.893 1300567 1308112 1301498 1284715 1263813 1245570 1234438 1231481 
2532.750 1233541 1235468 1231182 1217658 1195729 1169913 1146890 1132539 
2536.607 1129848 1137356 1149980 1160843 1164199 1157986 1144199 1128486 
2540.465 1118387 1120015 1136259 1165495 1202108 1239156 1269628 1290498 
2544.322 1302794 1311335 1322602 1342277 1372291 1410783 1451440 1487246 
2548.180 1512748 1525749 1528343 1525483 1522590 1522457 1524951 1526713 
2552.037 1523920 1514045 1498052 1479533 1463508 1454100 1451739 1454665 
2555.895 1459785 1465037 1471620 1484287 1508725 1548925 1603895 1666189 
2559.752 1724434 1767216 1786313 1781355 1759165 1731786 1710662 1703443 
2563.609 1710396 1725432 1738339 1739304 1722571 1688242 1641776 1591490 
2567.467 1546431 1513014 1495226 1493796 1508525 1538551 1583709 1644004 
2571.324 1719677 1809037 1908666 2012179 2110689 2194402 2253017 2279097 
2575.182 2269404 2226440 2157805 2076429 1997166 1932894 1893890 1884239 
2579.039 1902110 1940949 1991707 2045368 2094707 2136327 2169959 2198498 
2582.896 2226340 2257247 2293653 2334692 2375702 2409652 2428711 2426078 
2586.754 2399290 2351149 2290055 2227572 2176619 2147649 2145684 2170325 
2590.611 2215349 2271836 2329562 2379967 2417515 2439740 2447370 2443272 
2594.469 2431676 2416916 2403288 2393493 2388296 2386930 2387130 2387096 
2598.326 2386397 2387063 2393893 2413150 2450236 2507453 2583076 2670947 
2602.184 2760937 2842574 2906380 2946843 2962222 2954716 2930097 2895439 
2606.041 2858116 2825265 2802020 2791415 2794016 2808023 2829200 2852880 
2609.898 2874693 2891503 2902444 2908682 2912251 2915453 2919690 2925094 
2613.756 2931131 2936369 2939438 2939705 2937870 2935568 2936035 2942807 
2617.613 2959520 2987811 3026280 3070358 3111104 3137269 3139338 3110970 
2621.471 3052406 2970996 2879696 2794050 2727459 2689417 2682849 2704753 
2625.328 2748032 2804288 2865153 2922859 2971697 3006561 3023811 3021876 
2629.186 3002724 2971731 2936435 2906313 2888535 2887134 2901743 2928496 
2633.043 2961555 2995518 3027581 3056544 3083439 3109002 3133631 3156159 
2636.900 3175818 3192139 3205992 3219911 3236568 3257600 3283372 3312118 
2640.758 3341667 3369115 3392690 3411491 3425117 3433132 3434735 3428857 
2644.615 3414898 3393792 3368013 3341467 3318662 3303104 3296460 3298496 
2648.473 3307110 3319831 3334054 3347978 3360733 3372387 3383407 3395061 
2652.330 3408920 3426620 3449464 3477485 3508850 3539916 3566139 3583378 
2656.188 3589792 3586318 3577197 3568645 3566306 3573790 3592164 3619126 
2660.045 3650868 3683348 3713858 3740727 3763788 3783173 3798649 3809746 
2663.902 3816298 3818805 3818939 3819407 3823184 3832076 3847051 3867577 
2667.760 3892316 3919631 3948386 3977142 4004530 4028173 4045463 4053256 
2671.617 4050079 4036133 4014395 3989081 3965673 3948520 3940127 3941197 
2675.475 3951061 3967813 3989682 4014328 4039243 4060313 4073323 4073992 
2679.332 4059811 4031384 3992926 3952098 3916890 3894991 3891046 3905656 
2683.189 3936248 3978045 4025264 4072487 4115668 4151427 4177822 4193814 
2687.047 4199969 4198665 4192676 4185483 4179060 4173272 4165511 4151528 
2690.904 4127877 4092656 4048039 3999447 3954505 3919498 3898568 3891782 
2694.762 3895158 3902447 3907729 3906559 3897498 3881718 3862162 3842371 
2698.619 3825290 3813523 3808142 3809947 3818337 3831942 3848656 3865705 
2702.477 3880415 3891514 3899270 3905188 3912176 3922373 3937151 3955775 
2706.334 3975839 3994932 4010884 4023458 4033758 4044728 4058708 4077303 
2710.191 4100415 4126907 4155107 4183944 4213419 4244870 4280238 4320428 
2714.049 4364906 4411229 4454745 4490130 4512795 4520295 4513197 4494951 
2717.906 4471885 4451196 4439213 4440685 4457356 4488590 4531210 4581368 
2721.764 4635250 4689372 4741257 4788492 4828762 4859420 4878352 4884048 
2725.621 4877112 4860726 4840087 4820855 4808693 4806248 4812714 4824105 
2729.479 4834525 4837976 4830437 4810704 4781121 4745846 4709235 4674568 
2733.336 4642852 4612779 4582071 4548621 4511557 4472052 4433087 4398208 
2737.193 4370361 4350581 4337931 4328861 4319625 4305670 4284521 4255577 
2741.051 4220546 4183141 4147614 4118378 4098543 4089311 4089980 4097873 
2744.908 4108878 4118746 4123094 4118779 4104497 4081183 4052152 4022154 
2748.766 3997006 3982225 3981088 3994732 4020481 4053624 4087404 4114966 
2752.623 4131223 4133497 4122425 4101252 4075430 4050112 4029745 4016936 
2756.480 4011954 4013191 4018709 4026835 4037337 4051550 4071618 4099914 
2760.338 4137144 4181536 4228442 4272040 4305837 4325247 4329330 4321231 
2764.195 4307511 4295832 4293723 4305335 4331304 4368386 4410760 4452469 
2768.053 4488456 4516211 4536299 4551400 4565329 4582440 4606483 4639905 
2771.910 4683645 4737539 4799380 4866054 4933845 4999200 5059334 5113208 
2775.768 5161120 5204980 5247066 5289593 5333633 5379020 5424781 5469975 
2779.625 5514034 5557594 5602131 5649728 5702432 5761658 5828111 5901627 
2783.482 5982043 6068857 6161907 6260858 6365380 6474434 6586341 6698816 
2787.340 6809233 6914863 7013347 7103298 7184004 7256166 7321366 7382093 
2791.197 7441412 7502358 7567258 7638102 7715467 7799390 7889470 7985577 
2795.055 8087578 8195580 8309181 8427372 8547725 8667300 8782783 8892107 
2798.912 8994626 9092026 9187858 9286757 9392789 9508736 9635248 9771118 
2802.770 9914217 10061737 10212292 10365208 10520553 10678874 10840684 
2806.145 11005478 11172747 11342088 11513706 11688660 11869268 12057549 
2809.520 12255420 12463441 12681114 12906097 13135637 13366767 13596756 
2812.895 13824096 14047277 14266259 14481685 14695437 14910424 15130631 
2816.271 15360664 15604899 15866559 16147427 16447302 16764982 17098918 
2819.646 17448080 17812438 18193168 18591592 19008554 19443590 19895122 
2823.021 20360806 20839396 21331326 21839976 22371238 22932980 23533784 
2826.396 24180890 24879938 25634558 26446618 27317076 28246774 29237580 
2829.771 30292356 31415238 32611784 33889324 35255688 36720248 38293140 
2833.147 39984324 41804568 43764676 45874580 48145460 50588180 53212808 
2836.522 56028984 59043856 62261632 65682552 69303160 73115920 77109160 
2839.897 81269672 85581064 90026136 94589800 99257680 104019976 108871784 
2843.272 113811544 118839856 123956080 129153624 134418832 139727664 
2846.166 145044928 150328816 155526800 160578640 165420672 169979152 
2849.059 174177184 177937264 181180304 183835200 185841152 187149088 
2851.952 187729920 187574048 186695792 185132112 182944416 180212288 
2854.845 177021632 173465520 169628896 165585104 161400592 157129344 
2857.738 152820640 148522832 144280304 140138560 136141248 132325320 
2860.631 128725320 125369160 122277496 119466392 116944888 114715344 
2863.524 112773808 111110384 109710152 108554120 107622240 106893016 
2866.417 106343352 105950096 105685112 105516136 105406816 105312888 
2869.310 105187960 104985208 104657944 104168704 103489576 102606504 
2872.203 101521528 100253232 98834680 97306264 95715512 94108680 92526296 
2875.578 91004776 89573336 88255888 87073672 86044024 85181488 84497576 
2878.954 83998520 83686840 83560552 83615456 83845328 84243512 84803912 
2882.329 85519376 86383264 87388272 88525880 89789024 91170568 92663672 
2885.704 94262368 95959272 97745624 99611696 101545848 103536880 105575032 
2889.079 107651488 109759544 111892896 114044568 116208392 118376816 
2891.972 120543008 122702256 124850304 126984384 129101800 131199864 
2894.865 133276136 135329856 137363680 139383264 141396928 143413200 
2897.759 145437536 147471200 149510208 151547904 153577712 155596352 
2900.652 157606144 159614816 161632816 163672656 165745616 167861856 
2903.545 170030176 172259520 174556992 176929152 179379488 181907952 
2906.438 184511216 187185040 189926576 192736128 195617904 198578208 
2909.331 201624096 204759728 207987024 211305712 214714848 218214448 
2912.224 221804608 225483600 229245104 233075360 236953072 240848432 
2915.117 244728544 248556576 252291856 255892128 259306944 262479248 
2918.010 265350528 267858624 269947136 271569536 272686464 273267872 
2920.903 273289792 272732896 271585344 269846208 267529152 264662448 
2923.796 261288352 257458064 253224192 248641168 243761584 238636016 
2926.689 233318656 227862976 222321104 216743584 211171664 205638928 
2929.582 200170000 194780528 189480160 184273680 179162464 174146416 
2932.475 169225264 164401056 159679088 155068512 150581648 146232416 
2935.368 142032944 137992608 134118568 130413624 126880928 123523440 
2938.261 120344856 117349960 114543944 111931264 109516872 107306464 
2941.155 105306808 103527544 101978624 100669848 99607824 98794368 98224984 
2944.530 97889608 97774680 97864704 98144688 98601856 99224072 100000128 
2947.905 100916744 101955784 103095328 104305600 105549928 106789192 
2950.798 107978080 109071496 110029248 110815240 111403792 111780416 
2953.691 111940528 111887576 111629656 111176800 110538040 109722096 
2956.584 108738496 107597280 106310752 104891168 103348728 101691552 
2959.477 99923296 98045840 96060744 93971464 91784024 89507288 87150208 
2962.853 84722352 82232560 79690072 77106184 74494400 71870104 69249496 
2966.228 66646800 64073244 61537372 59046284 56607600 54231488 51928980 
2969.603 49712020 47589612 45565468 43637748 41800408 40045944 38368348 
2972.978 36765324 35238800 33793440 32433334 31160026 29970312 28857422 
2976.354 27811314 26821392 25878946 24977670 24114160 23287636 22498764 
2979.729 21748768 21039642 20372472 19747692 19164254 18619018 18107764 
2983.104 17624234 17162578 16717872 16287690 15871679 15472068 15091590 
2986.479 14732078 14393892 14074725 13771115 13478654 13193903 12914971 
2989.854 12641302 12373600 12111753 11855103 11601701 11348584 11093235 
2993.230 10834740 10574328 10316446 10066688 9831578 9616616 9423837 9252197 
2997.087 9096425 8949299 8801819 8646816 8479773 8299961 8110870 7918691 
3000.945 7731218 7554682 7393417 7248047 7116231 6993614 6875308 6757369 
3004.802 6637982 6517149 6396617 6278439 6164057 6054140 5948047 5845238 
3008.659 5744500 5645968 5550009 5457661 5370231 5288285 5212290 5141975 
3012.517 5077202 5017970 4964376 4915950 4871750 4829700 4787252 4741592 
3016.374 4691047 4635417 4577182 4519090 4464989 4417522 4377189 4341813 
3020.232 4307979 4271404 4228843 4179160 4123228 4063390 4002490 3942501 
3024.089 3884460 3828332 3773848 3721243 3671519 3626143 3586218 3551674 
3027.947 3521075 3492082 3462055 3429258 3394093 3358696 3326275 3299398 
3031.804 3279132 3264510 3252458 3239773 3224351 3206025 3187166 3171278 
3035.661 3162467 3162467 3170644 3183327 3195110 3199416 3190871 3166339 
3039.519 3125755 3072427 3011733 2950947 2896974 2854981 2826565 2810291 
3043.376 2800419 2788914 2768139 2732261 2680115 2615409 2546912 2485658 
3047.234 2441672 2421514 2426045 2450002 2483159 2513851 2532348 2532214 
3051.091 2512452 2476594 2431043 2382732 2337491 2299182 2269271 2247089 
3054.948 2231435 2220345 2211819 2203660 2193936 2180682 2163199 2141788 
3058.806 2118647 2096705 2079692 2070037 2068606 2073600 2081756 2089580 
3062.663 2094608 2096639 2098137 2102598 2112554 2128569 2147216 2162134 
3066.521 2166296 2153676 2122110 2073466 2013843 1949735 1888066 1832262 
3070.378 1783252 1740002 1701448 1667553 1640811 1624149 1620191 1628938 
3074.236 1646698 1666256 1679827 1680126 1664193 1633494 1594716 1557105 
3078.093 1529772 1519498 1529174 1556806 1596845 1641610 1683086 1714221 
3081.950 1730222 1729390 1712491 1683452 1647995 1613107 1584906 1567913 
3085.808 1563424 1569609 1581747 1593053 1597676 1590992 1571072 1539482 
3089.665 1499980 1457191 1415471 1378739 1348526 1325061 1307247 1293688 
3093.523 1282622 1273317 1265341 1259593 1257167 1259593 1268233 1283220 
3097.380 1303924 1328285 1353445 1375981 1392268 1399747 1396855 1383293 
3101.238 1360226 1330379 1296912 1264012 1235767 1216130 1208022 1212574 
3105.095 1229720 1256768 1289567 1323067 1351982 1372225 1381432 1378872 
3108.952 1365909 1344770 1318314 1289601 1261620 1236963 1218223 1207358 
3112.810 1205597 1212342 1225732 1242114 1257366 1267834 1271190 1267767 
3116.667 1259559 1249723 1240951 1234172 1228291 1220615 1207956 1189117 
3120.525 1165495 1141176 1122473 1115131 1123204 1145761 1178917 1215100 
3124.382 1245636 1263580 1265441 1251052 1223872 1189316 1153235 1120048 
3128.240 1092975 1072978 1060389 1055308 1058098 1069258 1089088 1116859 
3132.097 1150146 1184997 1216362 1239755 1252382 1254276 1248361 1240054 
3135.954 1234704 1237030 1248627 1268000 1290598 1310538 1322701 1324031 
3139.812 1313861 1294552 1270060 1243941 1219917 1200281 1187090 1181575 
3143.669 1184731 1196526 1215399 1237827 1258828 1272652 1275178 1265508 
3147.527 1246733 1225001 1207690 1200679 1206261 1222077 1242413 1260822 
3151.384 1271057 1270791 1260756 1244074 1224536 1204600 1185362 1166558 
3155.241 1148053 1130612 1116128 1107458 1106461 1113138 1125097 1137887 
3159.099 1146724 1148053 1140711 1126061 1107557 1089188 1074539 1065538 
3162.956 1062847 1065903 1073476 1084106 1096396 1108454 1119317 1127622 
3166.814 1132838 1135196 1135595 1134831 1133469 1131874 1129748 1126526 
3170.671 1122406 1118154 1115131 1114733 1117091 1121676 1126326 1128253 
3174.529 1124931 1115131 1098555 1076898 1052285 1027641 1006219 991075 
3178.386 984965 989813 1006219 1032722 1065837 1100249 1129981 1150677 
3182.243 1160378 1160112 1153136 1144033 1136259 1130811 1126559 1121244 
3186.101 1113337 1102940 1092642 1085169 1082810 1084371 1085833 1080618 
3189.958 1062715 1028936 980847 925292 872732 833457 815265 820909 847799 
3194.298 888502 933560 973873 1002101 1014157 1009474 990212 960822 926122 
3198.637 891690 861676 838835 824593 818485 819581 826619 837972 852845 
3202.977 869677 886544 900422 907660 904672 888868 860448 821938 778651 
3207.317 736863 702413 679613 669326 670023 677489 686781 692855 691958 
3211.656 682434 664945 641982 618091 598548 588295 590651 606013 631662 
3215.996 662257 690697 710544 716982 708519 686582 655819 621542 589091 
3220.335 562814 544169 533321 528743 528113 529406 531364 534449 539525 
3224.675 549113 564838 587432 615834 645533 670122 683031 677921 651937 
3229.015 606511 547221 482666 421570 371889 338098 321817 321917 336208 
3233.354 362007 397160 439214 484922 530568 571407 602595 621044 625656 
3237.694 618589 603624 585641 569151 557042 550108 547918 549179 551634 
3242.033 552828 549975 540288 521312 492253 455533 415898 381540 360913 
3246.373 359752 378887 413444 453211 485187 498555 487045 452150 401770 
3250.713 348477 305735 283322 285676 310444 350964 396862 437855 466147 
3255.052 476861 469033 444986 410393 372354 338994 317705 312665 324039 
3259.392 346853 372619 390494 391887 372586 334981 287367 241746 210286 
3263.731 201037 215756 249372 292208 332362 359620 367877 356635 329245 
3268.071 292141 253383 219734 196131 185590 188606 203987 229414 261307 
3272.411 295987 330339 361477 387012 405418 415666 416396 406977 387609 
3276.750 360548 329311 300132 279310 272148 281001 304111 336208 368872 
3281.090 393943 405783 402267 386083 363566 341812 326725 321353 324934 
3285.429 334384 345029 353651 358658 361609 365522 373382 386780 404556 
3289.769 422399 434405 434803 419679 389333 347284 300895 258224 226132 
3294.109 208894 206573 216518 234022 254477 274900 293766 311538 329609 
3298.448 349041 369900 391091 411321 428568 441437 448899 450392 444952 
3302.788 432150 411454 383231 349306 313229 279807 253947 240818 243006 
3307.127 260611 290782 328018 365390 395833 414538 419812 413411 399979 
3311.467 385718 376267 374509 379915 389101 396430 396696 386780 366981 
3315.807 340751 312466 287665 268999 257461 252223 251825 255604 264224 
3320.146 279078 300696 328217 358592 386349 406280 414373 409199 392219 
3324.486 366782 336739 305106 273541 242608 212772 185523 163083 148233 
3328.825 143030 148068 162486 184164 210982 241780 276624 315948 359951 
3333.165 406910 453410 494541 524497 538928 536373 517829 486580 448070 
3337.505 407574 369071 335877 308819 287831 271386 257693 245559 234718 
3341.844 226662 224441 231237 249438 278249 313892 349638 377527 391356 
3346.184 388968 372387 347383 321519 300696 287433 280537 276127 270026 
3350.523 259649 244929 227823 211081 196297 183269 170839 158210 145714 
3354.863 136401 134180 142963 163282 192717 224375 250399 263727 259881 
3359.203 238696 203789 161392 118105 80390 53547 41021 44832 65378 100706 
3364.024 146477 196695 244366 283322 310112 324835 330803 333025 336606 
3368.364 344133 355839 369004 380081 385420 382734 370994 350135 320856 
3372.704 283421 238929 189203 137693 88974 48809 21769 10503 14976 31776 
3377.525 55635 81484 104318 121817 133617 140643 144720 147769 150819 154962 
3382.347 161193 170508 183833 201269 221723 242144 258688 266578 262633 
3386.687 245891 219270 188507 161989 147902 151647 174684 213568 260213 
3391.026 304144 335910 348643 341215 317208 284515 251958 226563 211711 
3395.366 206905 208131 209888 206739 195369 175811 150620 124469 102793 
3399.706 89669 87416 96530 115222 140743 170110 200606 230375 257229 279177 
3404.527 292705 294595 281432 251361 205413 147935 86587 29324 -16566 -47478 
3409.349 -63248 -67290 -63778 -55495 -42773 -23557 4804 42811 87018 129175 
3414.171 159470 169215 154498 118868 71774 27038 -2551 -9409 7455 42678 
3418.993 86157 127286 158409 176076 180452 174949 163050 147040 128115 
3423.332 106804 84632 64019 48941 43275 50565 72370 107400 152807 203556 
3428.154 254179 298772 332826 353153 358492 350401 332229 308786 284217 
3432.494 260677 238332 214231 184496 146046 98518 44965 -8184 -53110 -82661 
3437.315 -92765 -83224 -58179 -23756 12591 44932 69123 83141 86587 80291 
3442.137 65742 44998 20444 -4870 -28096 -47047 -60299 -68118 -72159 -75274 
3446.959 -79978 -87995 -98728 -110322 -118537 -120458 -112939 -95249 -68482 
3451.299 -35915 -2054 28297 51294 64781 69089 66041 59115 51725 46953 46986 
3456.603 52056 61766 74094 86786 97259 103324 102959 95370 80523 59910 36250 
3461.906 12823 -6328 -18289 -21370 -16003 -4241 9642 20874 24718 17296 -2750 
3467.210 -34226 -73087 -112906 -147123 -169215 -175674 -165737 -141823 
3471.068 -109162 -72789 -38102 -7653 17760 39729 60043 80291 100308 118602 
3475.890 132523 140080 139980 133650 123408 113532 108096 109687 119332 
3480.229 135207 153503 168850 176839 174485 161856 141671 118271 96099 78137 
3485.051 64616 53581 41651 24751 1722 -25943 -53309 -74015 -82164 -75008 
3489.873 -54005 -25313 2650 21703 25116 10603 -19416 -59073 -100682 -136822 
3494.695 -161862 -172825 -169712 -154874 -131025 -101775 -69509 -36379 -4075 
3499.034 25182 49505 65974 72337 67399 51891 28463 2054 -21370 -37738 -44828 
3504.338 -43602 -37075 -28726 -21139 -15274 -11199 -7819 -6063 -8581 -18985 
3509.160 -41713 -77858 -125062 -175475 -218695 -244857 -247142 -224226 
3513.017 -180443 -124996 -68317 -20178 12723 28065 26441 10702 -16003 -50062 
3517.839 -87730 -125129 -156828 -178357 -186140 -178522 -157093 -125990 
3521.697 -91639 -60034 -36545 -23590 -20907 -25512 -34888 -46318 -58378 
3526.036 -70934 -83821 -96840 -109262 -119564 -125626 -126520 -121121 
3529.894 -110156 -95051 -78619 -63844 -54137 -52017 -58378 -72590 -91870 
3534.233 -113403 -133907 -150899 -163419 -171600 -176303 -177032 -172825 
3538.091 -161929 -142817 -115655 -83290 -49996 -21635 -3015 3379 -1557 
3542.430 -14976 -32039 -48770 -62685 -74015 -84682 -97204 -113038 -131389 
3546.770 -149475 -163717 -171236 -170706 -163253 -151727 -139538 -131985 
3550.627 -132979 -146030 -171732 -208131 -249626 -288998 -319327 -335352 
3554.485 -335253 -319427 -290455 -250917 -203726 -150932 -95051 -39195 12326 
3558.824 53050 77176 80026 61699 27137 -15175 -54270 -81104 -91042 -84384 
3563.646 -65633 -42243 -22364 -11497 -11232 -17660 -23126 -19117 -1491 26905 
3568.468 57855 81252 89371 77209 44236 -6262 -67190 -129866 -184848 -224723 
3573.290 -247341 -254759 -253964 -252739 -257805 -271912 -293501 -317672 
3577.147 -338928 -353628 -360547 -360911 -357170 -350184 -339888 -323764 
3581.004 -299494 -266382 -226279 -183490 -142353 -107042 -79216 -58245 
3584.862 -42707 -31741 -27169 -32933 -53640 -90280 -137484 -184782 -221212 
3589.201 -240618 -242837 -232704 -216808 -201176 -189816 -183391 -179151 
3593.059 -171964 -156993 -131124 -94620 -51288 -7156 31776 60738 76082 75684 
3597.881 58319 24453 -23855 -81700 -141691 -195645 -236015 -257540 -259362 
3602.220 -243764 -215384 -178953 -139538 -101146 -67555 -42310 -28163 -26440 
3606.560 -35418 -50725 -65136 -72159 -69509 -60896 -53574 -55860 -72623 
3610.899 -102902 -140134 -172362 -187696 -177595 -141724 -89088 -34723 7289 
3615.239 28926 28463 10039 -18024 -45258 -61359 -57616 -29985 20112 85096 
3620.061 154929 219933 272646 309449 328814 331533 319794 297347 268468 
3624.400 237868 209755 187181 171568 162818 159105 157415 153437 142599 
3628.740 121751 92288 58883 26673 -265 -20410 -32205 -34060 -25048 -5168 
3633.562 24089 58485 91790 118138 132655 132854 119398 95569 67167 41253 
3638.384 24254 20377 29788 48842 71442 90829 101368 100407 89272 72039 54044 
3643.688 40425 34891 39464 55536 83737 124204 175911 234387 290815 331798 
3648.509 343636 318103 257892 178463 101600 45462 17727 16302 32505 56563 
3653.331 78899 91757 88476 64583 18853 -44794 -117079 -187696 -247175 
3657.671 -291084 -318433 -330121 -327274 -311513 -284958 -250354 -211244 
3661.528 -171633 -135000 -103962 -80243 -65269 -59339 -62420 -73551 -90380 
3665.868 -109162 -125261 -133443 -129369 -110686 -79150 -41316 -8117 9211 
3670.207 5997 -12160 -33530 -47114 -44828 -22795 20576 84069 162121 241382 
3675.029 299204 314456 281664 215159 135108 57391 -9542 -62420 -100483 
3679.369 -125129 -139405 -147156 -151495 -153284 -150667 -140167 -118173 
3683.226 -82164 -32569 27071 91658 156520 218872 278580 337037 395502 452283 
3688.048 500977 530402 529937 495105 430259 347151 260312 181380 117144 
3692.387 69355 35421 11630 -5897 -19416 -29620 -36346 -38731 -36379 -30084 
3697.209 -21238 -11497 -2551 4141 6925 4241 -5632 -23822 -49764 -80640 
3702.031 -111912 -138743 -157722 -168420 -172461 -173455 -175508 -182662 
3705.888 -198030 -223862 -259461 -301216 -342702 -374418 -384383 -362566 
3709.746 -303269 -210880 -101676 -1391 64649 82677 55569 -1027 -67024 
3714.085 -124798 -163982 -180145 -173157 -145665 -101610 -45987 15606 75949 
3718.425 127617 164243 181479 178662 159470 131330 102827 81583 70647 67433 
3723.247 64914 54906 32008 -4439 -49996 -96840 -136590 -164379 -179648 
3727.586 -185610 -186272 -184053 -178953 -168884 -150833 -122644 -84384 
3731.444 -39361 6659 47516 77838 94674 96364 81417 48212 -1557 -61359 
3736.266 -121021 -169944 -202534 -218795 -222504 -218530 -211078 -201772 
3740.123 -189286 -170606 -141459 -99390 -45987 11199 57325 70448 31876 
3744.463 -55794 -164181 -257275 -311745 -321182 -289428 -222835 -127481 
3748.320 -9840 121088 251560 365423 444621 476695 459779 402897 323409 
3752.660 240354 168983 117078 86554 74491 76049 86090 100043 115156 130070 
3757.481 144355 157481 167193 169182 158641 132390 91559 42314 -6427 -46385 
3762.303 -70304 -74843 -60100 -29521 10172 49902 81417 100672 109621 113697 
3767.125 118569 127518 139218 148565 147836 130932 97193 52487 6162 -32933 
3771.947 -60200 -75274 -80541 -79613 -74810 -66826 -54767 -37075 -13187 
3776.286 14844 42877 64583 73431 64781 37940 -3114 -51189 -98926 -142651 
3781.108 -181470 -216145 -247308 -272342 -287044 -285786 -265388 -227571 
3784.966 -179979 -134801 -103465 -93527 -105750 -135000 -171534 -204355 
3788.823 -224590 -226809 -210350 -179052 -139140 -96972 -57881 -24949 1192 
3793.163 20941 35289 44468 47516 43010 30484 11298 -10569 -28991 -37804 
3797.984 -32602 -11696 24586 73795 129705 181247 213932 214330 178761 116481 
3802.806 43904 -24783 -80176 -116682 -131224 -122479 -92500 -48141 -3015 
3807.146 28098 36482 22995 -3147 -30184 -47279 -47644 -29521 4274 46555 
3811.968 87515 117840 130335 121154 90200 40359 -19979 -78222 -120856 
3816.307 -138411 -130462 -103465 -66329 -25479 14976 52752 86919 115984 
3820.647 137461 149228 149990 141273 125861 107168 88012 70614 56265 45396 
3825.469 36780 28628 18555 6295 -7190 -18885 -25015 -23955 -16036 -4804 3843 
3830.772 3677 -9840 -36081 -69575 -101411 -122943 -128110 -115026 -84881 
3835.112 -41316 11298 68228 124336 173491 208264 222054 210485 176043 127750 
3839.934 78435 41419 25513 32969 59943 97226 132887 155525 158807 142466 
3844.756 111576 74027 37343 6030 -18123 -35683 -48041 -56390 -60631 -59570 
3849.577 -51288 -32933 -2485 41485 97690 160530 216883 247847 239592 194043 
3854.399 127452 57756 -3015 -50360 -82760 -100848 -105552 -98827 -83125 
3858.739 -61094 -35617 -9741 14247 34427 49902 61136 68725 73398 74027 67863 
3864.043 50698 19185 -26440 -81435 -137948 -187796 -225186 -245851 -247805 
3868.382 -231942 -202335 -167195 -137186 -119895 -116483 -122413 -132118 
3872.240 -141061 -147487 -151197 -152687 -152456 -150568 -145699 -136490 
3876.097 -122280 -102438 -77195 -47047 -13054 23326 60275 94309 122049 
3880.437 140279 147637 144886 134975 120856 105445 90167 75684 61368 46158 
3885.259 28330 7024 -16864 -41614 -64705 -83489 -95879 -99026 -90181 -68018 
3890.080 -32569 11994 57955 95535 117343 120989 108958 87449 62230 38536 
3894.902 18853 4042 -6527 -14644 -22000 -30747 -42773 -59107 -80077 -104724 
3899.724 -129932 -151296 -162889 -159378 -137385 -96608 -41945 17727 69885 
3904.063 102429 108925 90001 52553 6759 -37373 -72888 -95249 -102869 -96343 
3908.885 -77924 -50625 -18389 14778 44998 69454 86554 96165 99844 100308 
3913.707 99546 99015 98518 96563 90100 76910 56795 31544 5897 -14843 -26307 
3919.011 -26506 -16003 1722 22896 43142 60374 73795 84201 93680 103191 
3923.833 113200 122447 128479 129009 122182 108096 88211 64384 39099 14744 
3928.655 -6527 -22795 -33199 -37207 -35418 -29355 -20973 -12425 -5433 -530 
3933.476 3081 6858 11729 18356 25182 29887 28827 19416 894 -24750 -52348 
3938.780 -74611 -85212 -79448 -56390 -18852 26673 71078 106307 126457 130733 
3943.602 122116 106638 89570 74259 61600 50267 38039 22498 2816 -20443 
3948.424 -44993 -67555 -85609 -97171 -101444 -98496 -88922 -72822 -50526 
3952.763 -22928 8217 39895 67532 86389 92453 84466 64119 35985 6394 -18786 
3958.067 -35816 -44629 -47412 -47842 -48803 -51420 -53640 -52282 -44562 
3962.407 -30084 -11331 6693 19185 22531 16964 5632 -5964 -12723 -10702 1159 
3967.711 21106 45462 70581 92685 108925 117575 117376 108096 90896 68725 
3972.533 46356 29291 22299 27800 44435 67565 90829 108560 117111 116548 
3977.354 109687 100208 91393 84897 80688 78037 76281 75552 76049 77772 79065 
3982.658 77109 68327 50200 23360 -8382 -38665 -60531 -67853 -58345 -32735 
3987.480 5931 53713 106804 162221 217281 268535 311405 341182 353684 347814 
3992.302 325531 292771 256500 223778 198750 181479 169016 157116 142168 
3996.642 122878 100971 80059 63953 54840 52354 54210 56497 55469 
##END=
