##TITLE=api_5  31.08. 12:01:25 2026 (GMT+02:00)
##JCAMP-DX=5.01  $$ Nicolet v. 970
##DATATYPE=INFRARED SPECTRUM
##ORIGIN=Vojna akademija
##OWNER=Nicolet
##LONGDATE=2026/08/31
##TIME=12:02:00
##SPECTROMETER/DATA SYSTEM=Nicolet iS20
##DATA PROCESSING=
Ratio against background
%Transmittance->Absorbance
Truncated
ElementMultiply or ElementDivide
##COMMENTS=
Number of sample scans: 8
Collection length: 11,90 sec
Sample gain: 8,0
Background collected on: Mon Aug 31 11:53:23 2026 (GMT+02:00);
Number of background scans: 8
Background gain: 8,0
Sample spacing:  1,000
Number of scan points: 12415
Resolution points: 8286
Number of FFT points: 65536
Apodization: N-B strong;
Phase correction: Mertz;
Laser frequency: 15798,00 cm-1
Number of rejected sample scans: 0
Number of rejected background scans: 0
Bench serial number: BER2010005;
##RESOLUTION= 4,000
##XUNITS=1/CM
##YUNITS=ABSORBANCE
##FIRSTX=400.156891
##LASTX=4000.123047
##FIRSTY=0.008490
##MAXX=4000.123047
##MINX=400.156891
##MAXY=0.280805
##MINY=-0.002027
##XFACTOR=1.000000
##YFACTOR=1.000000E-009
##NPOINTS=7468
##DELTAX=0.482117
##ZPD=6100
##XYDATA=(X++(Y..Y))
400.157 8490416 9195404 9359879 9074568 8518226 7903540 7387553 7036077 
404.014 6797183 6539786 6099535 5380362 4405137 3339898 2421914 1895554 
407.871 1935224 2591342 3777057 5270744 6787557 8015007 8707560 8728418 
411.728 8037621 6702046 4884349 2844108 872964 -736706 -1751540 -2027140 
415.585 -1467212 -2584 2430044 5812395 9911403 14097555 17237246 18208542 
419.442 16640540 13198890 8997907 5009355 1816058 -363560 -1496931 -1712861 
423.298 -1260939 -490272 254013 735402 890030 829938 762586 903643 1385919 
427.638 2234533 3362436 4615424 5811253 6807751 7537554 8005523 8279157 
431.494 8454839 8631133 8872086 9198315 9581319 9959949 10242145 10327305 
435.351 10133328 9617497 8804490 7784547 6695484 5676784 4846687 4291113 
439.208 4052085 4130052 4475534 4992932 5537290 5943983 6081122 5889838 
443.065 5424814 4834223 4312965 4006403 3962864 4112625 4299780 4326418 
446.922 4036634 3392690 2497355 1561960 807464 407972 423095 794651 1361389 
451.261 1916587 2263442 2287924 2011580 1586037 1240918 1192207 1613772 
455.118 2601075 4171968 6248791 8651075 11082391 13151039 14515533 15002130 
458.975 14660306 13685312 12309411 10720204 9030959 7315974 5628044 4020348 
462.832 2561277 1321472 367180 -244758 -476140 -304660 260810 1170146 
466.689 2313506 3527890 4638063 5482961 5967732 6081088 5891249 5519672 
470.546 5113141 4815863 4714493 4817237 5034830 5219030 5210378 4908812 
474.403 4304231 3462322 2495922 1533663 714028 151415 -76367 50002 481538 
478.742 1107690 1784782 2380166 2785480 2949879 2887934 2679482 2443072 
482.599 2296651 2324299 2540113 2883165 3232129 3455442 3443753 3150719 
486.456 2598709 1865770 1058563 289422 -324062 -678651 -691883 -311547 
490.313 465020 1586136 2939871 4381975 5748831 6907423 7794937 8427609 
494.170 8881962 9248304 9592463 9920217 10176302 10257412 10060211 9512257 
498.027 8601459 7376027 5933301 4402760 2920223 1636787 687080 157945 62859 
502.366 323972 793323 1296048 1701681 1947539 2051061 2086650 2154741 
506.223 2338590 2668846 3113206 3591930 4015231 4316847 4480756 4532951 
510.079 4517382 4466930 4386527 4252800 4032788 3706138 3284708 2815160 
513.936 2369772 2023896 1837652 1848700 2063512 2463864 3008630 3644854 
517.793 4302324 4895106 5333667 5532390 5443234 5076263 4509247 3867945 
521.650 3296259 2927962 2841306 3050804 3499698 4080682 4651224 5073414 
525.507 5253606 5158404 4826048 4344758 3828766 3377530 3060648 2914586 
529.364 2940038 3105464 3352987 3612077 3809312 3893286 3849960 3704434 
533.221 3512992 3341400 3249187 3266580 3388950 3579235 3788388 3969318 
537.078 4094964 4165678 4205724 4252632 4344323 4510151 4762462 5095305 
540.935 5484504 5893163 6274909 6578032 6759321 6787154 6649354 6355899 
544.792 5940590 5454406 4955595 4505631 4151494 3921938 3829334 3872625 
548.649 4043457 4327656 4703875 5137046 5577563 5969177 6252959 6385790 
552.506 6350519 6163016 5870694 5542827 5256088 5067480 5003121 5052797 
556.363 5180400 5337155 5482089 5596425 5682760 5759844 5847387 5954631 
560.220 6073293 6180391 6246807 6251581 6188289 6066673 5904381 5719420 
564.077 5519739 5302506 5057357 4775895 4459298 4123028 3793602 3503472 
567.934 3281870 3145612 3096821 3122184 3199282 3301468 3403911 3489677 
571.790 3548734 3580471 3590728 3590828 3590293 3593467 3594503 3577565 
575.647 3520842 3406015 3229258 3007495 2776609 2579809 2460033 2444038 
579.504 2536847 2718457 2951614 3190470 3395462 3546496 3642983 3698853 
583.361 3732573 3757839 3777792 3784076 3760145 3690332 3567709 3399569 
587.218 3210565 3040060 2936469 2940772 3078200 3344572 3705436 4095699 
591.075 4438476 4669477 4754590 4707426 4582206 4454109 4384218 4402627 
594.932 4497227 4624265 4723973 4749297 4686358 4558766 4417020 4315642 
598.789 4292920 4351083 4454544 4540618 4549558 4441991 4216898 3906927 
602.646 3569246 3264109 3036623 2910550 2884232 2937836 3043597 3178655 
606.503 3327543 3482228 3637737 3785012 3908799 3991053 4015198 3976239 
610.360 3885028 3771475 3675194 3634563 3672421 3784978 3939024 4078307 
614.217 4144938 4091318 3901444 3597142 3236335 2894305 2639243 2517484 
618.074 2538413 2679382 2895773 3142108 3381503 3592899 3770707 3916355 
621.931 4031250 4111286 4148015 4132661 4061216 3938489 3776322 3590460 
625.788 3395629 3199783 3005460 2814093 2630676 2471429 2363442 2339489 
629.644 2432143 2660445 3020641 3482629 3996838 4501881 4934951 5248575 
633.501 5412769 5418507 5275070 5005233 4639000 4208768 3752358 3311684 
637.358 2932933 2664446 2544379 2590675 2791649 3105564 3463491 3786449 
641.215 4010717 4096603 4043590 3883189 3670750 3462556 3302603 3214003 
645.072 3195377 3229458 3291085 3360132 3426152 3490512 3564636 3666807 
648.929 3815663 4022856 4288001 4592854 4900635 5157130 5307537 5305826 
652.786 5135303 4815997 4407179 3991822 3648763 3440179 3388549 3477653 
656.643 3662196 3889842 4117040 4319658 4493043 4640340 4760653 4843571 
660.500 4868869 4818108 4684884 4482162 4239717 3994230 3778060 3606297 
664.357 3477820 3381971 3312118 3277263 3310115 3464593 3793602 4291950 
668.214 4848765 5277619 5447897 5350674 5059569 4666530 4253904 3888004 
672.071 3611609 3448762 3397799 3433199 3512891 3593300 3642147 3642883 
675.928 3596274 3515664 3420742 3328145 3249087 3186231 3136534 3094819 
679.785 3058779 3031652 3022676 3044131 3104163 3203088 3328178 3454273 
683.642 3549069 3585215 3549102 3449597 3316091 3194476 3133597 3170945 
687.498 3325006 3589057 3932905 4309619 4672693 4979793 5201693 5325784 
691.355 5354833 5305860 5206757 5094031 5004562 4969001 5009523 5133626 
695.212 5336317 5602433 5912879 6249127 6594684 6935467 7254751 7531250 
699.069 7742146 7866257 7893249 7829381 7700626 7546017 7409999 7333834 
702.926 7342158 7440334 7615879 7846621 8110162 8392544 8692449 9018340 
706.783 9383071 9796975 10264977 10784499 11349162 11951478 12587203 
710.158 13254706 13955021 14689164 15455451 16248614 17060182 17879554 
713.533 18698398 19515152 20337992 21186294 22087608 23073948 24169994 
716.908 25387076 26714964 28121190 29547448 30919234 32159544 33192300 
720.282 33960332 34433532 34610252 34517580 34203680 33727936 33142232 
723.657 32486252 31781062 31032924 30242090 29411136 28550026 27676568 
727.032 26808914 25961738 25143772 24357832 23607036 22898820 22243018 
730.407 21650300 21125416 20663882 20253346 19879998 19535704 19223472 
733.782 18955872 18747624 18606324 18524436 18477412 18431812 18359186 
737.156 18245966 18099820 17944158 17807192 17705090 17632620 17561024 
740.531 17450634 17264034 16979618 16599985 16148873 15660990 15167515 
743.906 14691667 14244722 13829604 13447210 13101351 12800091 12554904 
747.281 12375816 12269701 12237595 12274336 12369168 12505657 12663851 
750.656 12819850 12948664 13029438 13048320 13002979 12903332 12767503 
754.031 12614115 12456962 12301434 12145723 11985981 11822823 11663711 
757.405 11523369 11416748 11353006 11330864 11338415 11357665 11371712 
760.780 11371644 11359298 11345658 11343754 11362937 11403753 11456957 
764.155 11506119 11533475 11526635 11480194 11398924 11295802 11190155 
767.530 11101970 11048130 11037016 11064614 11112235 11151058 11149901 
770.905 11081915 10935883 10720442 10463458 10201369 9971103 9799144 9694437 
774.762 9649172 9643380 9653374 9656524 9637687 9589279 9510971 9407178 
778.619 9286825 9162510 9047772 8954340 8888793 8848042 8820077 8785792 
782.475 8727944 8634716 8506162 8351974 8187847 8026887 7874490 7727710 
786.332 7578620 7421020 7255998 7092217 6943715 6822662 6733879 6672974 
790.189 6630009 6596602 6570631 6559194 6573895 6623852 6707396 6809603 
794.046 6904427 6967452 6982267 6948833 6882040 6804621 6735394 6682530 
797.903 6642423 6605147 6563836 6521723 6491587 6492192 6536926 6626073 
801.760 6744143 6864603 6961964 7019643 7036413 7024324 7001292 6981257 
805.617 6970516 6967654 6969809 6979237 7008060 7073121 7190842 7366118 
809.474 7585499 7816696 8017875 8149154 8183019 8113808 7957700 7748960 
813.331 7528350 7338046 7212133 7170125 7216984 7342427 7524204 7729127 
817.188 7921593 8069653 8151349 8161275 8111073 8026314 7936981 7871621 
821.045 7847363 7866155 7914608 7968263 8000797 7986285 7909243 7764813 
824.902 7561121 7316480 7057259 6813069 6609688 6467002 6394129 6388816 
828.759 6438383 6523337 6623280 6719813 6801457 6862751 6902743 6922640 
832.616 6922842 6902743 6861472 6800010 6723549 6640808 6564644 6508000 
836.473 6480320 6484457 6515635 6562087 6607401 6637074 6640338 6615912 
840.329 6570295 6518158 6477125 6461553 6480017 6532453 6611976 6708271 
844.186 6813002 6923515 7043991 7182016 7343741 7527508 7722010 7904486 
848.043 8047983 8129776 8135752 8065467 7930367 7750579 7546623 7339158 
851.900 7146276 6984119 6869787 6820104 6846695 6951628 7120138 7320422 
855.757 7504280 7623028 7638843 7537993 7335856 7074906 6814617 6609957 
859.614 6504435 6515837 6637007 6840804 7091779 7355772 7602392 7811737 
863.471 7970221 8071341 8114314 8103613 8049198 7964720 7866358 7768524 
867.328 7681673 7611395 7559570 7527441 7517057 7531756 7573023 7636517 
871.185 7711183 7778408 7817944 7816831 7773584 7699817 7614868 7538263 
875.042 7476974 7421863 7349740 7235412 7065510 6850296 6624290 6441275 
878.899 6354789 6396046 6564980 6825658 7120980 7385396 7570292 7653985 
882.756 7644745 7571439 7471379 7376060 7301822 7252123 7222172 7206776 
886.613 7205664 7224497 7271530 7353717 7472862 7623635 7795004 7973528 
890.470 8145171 8296684 8417643 8499438 8537115 8530221 8484267 8410414 
894.327 8321981 8232081 8148614 8072590 7999650 7923854 7840447 7748656 
898.183 7651759 7554682 7460963 7371679 7287164 7209640 7146175 7109057 
902.040 7111347 7161704 7257784 7385328 7518203 7627243 7691318 7702246 
905.897 7669127 7612642 7558053 7522114 7507752 7502965 7486616 7437469 
909.754 7343977 7209505 7053992 6908837 6806136 6774600 6829730 6972233 
913.611 7187776 7453311 7740999 8023276 8279697 8495823 8665441 8788058 
917.468 8866743 8904891 8905229 8870226 8803408 8711042 8602980 8489910 
921.325 8380922 8278887 8181162 8079679 7967319 7844124 7720627 7617295 
925.182 7558222 7564156 7643497 7789506 7981526 8193958 8403117 8593686 
929.039 8761279 8906819 9030654 9126438 9180446 9176283 9103903 8967767 
932.896 8789815 8604940 8455042 8372545 8375484 8461190 8610246 8791776 
936.753 8973079 9127791 9237642 9294610 9298537 9257071 9183729 9096831 
940.610 9018103 8966720 8955861 8988199 9055519 9139939 9221363 9285369 
944.467 9326939 9353345 9378873 9420249 9487535 9581624 9692844 9807244 
948.324 9910692 9995209 10060618 10112877 10160903 10211071 10265418 
951.698 10320314 10369483 10405659 10424631 10426429 10415399 10398431 
955.073 10384279 10380614 10391982 10419879 10461558 10511014 10559695 
958.448 10599146 10622473 10626207 10611064 10581492 10545029 10509893 
961.823 10484605 10477103 10493532 10538612 10615070 10722513 10856345 
965.198 11007550 11162956 11306276 11422123 11497919 11526023 11504996 
968.573 11438757 11335489 11205216 11059958 10911385 10769825 10643627 
971.947 10537357 10451850 10384211 10329952 10284994 10248116 10222333 
975.322 10213989 10229050 10269353 10328560 10391779 10439123 10450459 
978.697 10415263 10335890 10230204 10124306 10046612 10016909 10038780 
982.072 10099142 10172402 10231832 10257344 10244384 10203676 10158427 
985.447 10132615 10142926 10192584 10270439 10354620 10419914 10447608 
988.821 10428059 10364630 10269999 10163141 10062314 9981275 9927336 9900284 
992.678 9893912 9897844 9902488 9900454 9889912 9874963 9864523 9868625 
996.535 9894318 9942558 10006364 10074081 10132243 10172164 10192686 
999.910 10200589 10206729 10221485 10248625 10284213 10316752 10333514 
1003.285 10326320 10295037 10247912 10198113 10158393 10134210 10123255 
1006.660 10116166 10102974 10077540 10040442 9999041 9963475 9940218 9929370 
1010.517 9922996 9909336 9877336 9821885 9747093 9665265 9594056 9548734 
1014.374 9539386 9566686 9620580 9681358 9725270 9728116 9671025 9546093 
1018.231 9358795 9129415 8886459 8664088 8492275 8388456 8356298 8384808 
1022.087 8455515 8545428 8636339 8716383 8780112 8827585 8860656 8881995 
1025.945 8894171 8900156 8903403 8907259 8914192 8924135 8936278 8949672 
1029.802 8966415 8992968 9038096 9108301 9202410 9307845 9401693 9456108 
1033.660 9448320 9371052 9237406 9078424 8931914 8833299 8800872 8832487 
1037.517 8908409 9001290 9085123 9143898 9174185 9181055 9172291 9152290 
1041.374 9120990 9075447 9014077 8939660 8858695 8779706 8709420 8651109 
1045.232 8605920 8576990 8572428 8606629 8695525 8849666 9065432 9322199 
1049.089 9583250 9801787 9938083 9966967 9886352 9715104 9487873 9243396 
1052.947 9013367 8820112 8673655 8574963 8521165 8508831 8536438 8603521 
1056.804 8708439 8846149 9006466 9174828 9332829 9462643 9550598 9589856 
1060.661 9583013 9541418 9483674 9428273 9389537 9372068 9370002 9369664 
1064.519 9355241 9316343 9251723 9171478 9092161 9033800 9012420 9036540 
1068.376 9107253 9219062 9362249 9523502 9688914 9842051 9966390 10049054 
1072.234 10082931 10071164 10026471 9968967 9917640 9883810 9867812 9860253 
1076.091 9848729 9825308 9793586 9768102 9767424 9803313 9873370 9956219 
1079.949 10020130 10030845 9968052 9833917 9653339 9463185 9300906 9191174 
1083.806 9137807 9127182 9135879 9143797 9140515 9127791 9114629 9109722 
1087.663 9112903 9114595 9098049 9050546 8969357 8868502 8772132 8710805 
1091.521 8706580 8764221 8867960 8986474 9083805 9131006 9117606 9054471 
1095.378 8970304 8899615 8871241 8897958 8971827 9066380 9146910 9182917 
1099.236 9155066 9062117 8918149 8748230 8575267 8416021 8276083 8152295 
1103.093 8037114 7925102 7817337 7721605 7650006 7613586 7618341 7661438 
1106.951 7732095 7813525 7889875 7949535 7989593 8015075 8037519 8069754 
1110.808 8121100 8194128 8283479 8377849 8463454 8529308 8570367 8589427 
1114.665 8595274 8599735 8613897 8643098 8686973 8738831 8789646 8829986 
1118.523 8854231 8860589 8851830 8832893 8809190 8785927 8767771 8759183 
1122.380 8764458 8787584 8830965 8894576 8975345 9067226 9162578 9254024 
1126.238 9335063 9401490 9450588 9481167 9492885 9485875 9461730 9423262 
1130.095 9375318 9322978 9271660 9226135 9190192 9168602 9168229 9197841 
1133.953 9267259 9384763 9552427 9763866 10002940 10247573 10471978 10654187 
1137.810 10781035 10849721 10867862 10850333 10815342 10779676 10756749 
1141.185 10756749 10784703 10843096 10931602 11047688 11187061 11344639 
1144.560 11513944 11687775 11857112 12011766 12139760 12230269 12275529 
1147.936 12275291 12238788 12185966 12143441 12135127 12177004 12268337 
1151.311 12392044 12517388 12612375 12653821 12634787 12567693 12480116 
1154.686 12404454 12364429 12369952 12412739 12470943 12516536 12526017 
1158.061 12488129 12405988 12295707 12180719 12085689 12027673 12014661 
1161.437 12042526 12099112 12167088 12230337 12278802 12310364 12329760 
1164.812 12346327 12369202 12402136 12442335 12480286 12504225 12502519 
1168.187 12468453 12400738 12302559 12178673 12032852 11867361 11684439 
1171.562 11488189 11287674 11095205 10924738 10787896 10689300 10625970 
1174.938 10588553 10566553 10550054 10534301 10518482 10503274 10487117 
1178.313 10464239 10424359 10356826 10254392 10117897 9956729 9788875 
1181.688 9635858 9516863 9446796 9432100 9471719 9557168 9675802 9812328 
1185.546 9949880 10073910 10171588 10234546 10259752 10249744 10211817 
1188.921 10155680 10092258 10030506 9976561 9933201 9899810 9873539 9850321 
1192.778 9826426 9800466 9773355 9748278 9730726 9725304 9733979 9754818 
1196.636 9781827 9806566 9820157 9817411 9796400 9760037 9713681 9662962 
1200.493 9613330 9567770 9529632 9502571 9491429 9500979 9534238 9590398 
1204.350 9663978 9746719 9829579 9904861 9969408 10022436 10064009 10093139 
1208.208 10106468 10099718 10071062 10024912 9972731 9930828 9915945 9936794 
1212.065 9990598 10061975 10129733 10171825 10175725 10141740 10082423 
1215.441 10016706 9962661 9931675 9926217 9941167 9968934 10005075 10049257 
1219.298 10105958 10181017 10277768 10394868 10526120 10661555 10791496 
1222.673 10908327 11008366 11091433 11160474 11220074 11275670 11332701 
1226.048 11395012 11464136 11537592 11610073 11675113 11726886 11763924 
1229.424 11789151 11809443 11831642 11858372 11885784 11904071 11900325 
1232.799 11863923 11790581 11684235 11554163 11411033 11262510 11110808 
1236.174 10954538 10791496 10624408 10460947 10314309 10197774 10121186 
1239.549 10087950 10093648 10129428 10184850 10250423 10318449 10381429 
1242.925 10430807 10456534 10449033 10403249 10322927 10220298 10115759 
1246.300 10031151 9982427 9977036 10011552 10074250 10149914 10225488 
1249.675 10291508 10342506 10374913 10384482 10365581 10315055 10234478 
1253.050 10133803 10030134 9946219 9901708 9908623 9965679 10059804 10169179 
1256.908 10269727 10343422 10381157 10383634 10358149 10315870 10266571 
1260.283 10217618 10173114 10135261 10105687 10086255 10078387 10083780 
1263.658 10102194 10132005 10170367 10213107 10256258 10296258 10330256 
1267.034 10357369 10378714 10397039 10416180 10440005 10469840 10504496 
1270.409 10539495 10568590 10586346 10590862 10584954 10575754 10572698 
1273.784 10582815 10608789 10646682 10687398 10718506 10730596 10718879 
1277.159 10686481 10642845 10601522 10574836 10570049 10586584 10617039 
1280.535 10649500 10671335 10674969 10659280 10630316 10598433 10574939 
1283.910 10568487 10581492 10611539 10652625 10699080 10748190 10801720 
1287.285 10865247 10946043 11048402 11172645 11312941 11460326 11603880 
1290.660 11734000 11845467 11936356 12007712 12061774 12100544 12125893 
1294.036 12139386 12145076 12148415 12157445 12181229 12226928 12298401 
1297.411 12394976 12510909 12636662 12761088 12873945 12966620 13034389 
1300.786 13076661 13096774 13101248 13098755 13098140 13105243 13122591 
1304.161 13147522 13174093 13193664 13198480 13183418 13147487 13093872 
1307.536 13028893 12960100 12894629 12837323 12791424 12757608 12735054 
1310.912 12721304 12712979 12705336 12692371 12668218 12627180 12566056 
1314.287 12484105 12383691 12269667 12149335 12030807 11922427 11831847 
1317.662 11763481 11718137 11691927 11677734 11666808 11651866 11629370 
1321.037 11600306 11570360 11546778 11536843 11545758 11573456 11615893 
1324.413 11665038 11711909 11749047 11773388 11787313 11797969 11815061 
1327.788 11849110 11907578 11993372 12104053 12233063 12371964 12512239 
1331.163 12648466 12779276 12907292 13038316 13179729 13338476 13519089 
1334.538 13722791 13947494 14188369 14438455 14690604 14938408 15176196 
1337.914 15398802 15600950 15777009 15921997 16033512 16113762 16167477 
1341.289 16201559 16222162 16233409 16238913 16242834 16251398 16273826 
1344.664 16320646 16401604 16522741 16683955 16878676 17095126 17320030 
1348.039 17540702 17748820 17940600 18116954 18280212 18432814 18575546 
1351.415 18708258 18830558 18943792 19050962 19156496 19263926 19375056 
1354.790 19489262 19605960 19726436 19857348 20010402 20201380 20447138 
1358.165 20761918 21155366 21634488 22207098 22886524 23695348 24662310 
1361.540 25812340 27146506 28624590 30163126 31658340 33020158 34189052 
1364.916 35139200 35861848 36352080 36609316 36642952 36486804 36204248 
1368.291 35892512 35658972 35593152 35759012 36186100 36886576 37875008 
1371.666 39181784 40854628 42939072 45443864 48291560 51294248 54198036 
1375.041 56748156 58775524 60210160 61033220 61236404 60795596 59684740 
1378.417 57915084 55567672 52799444 49794768 46734272 43751264 40921396 
1381.792 38290104 35882940 33715796 31794042 30101828 28599498 27226436 
1385.167 25917420 24616088 23296832 21977872 20715520 19576532 18605702 
1388.542 17807466 17154478 16608866 16134601 15706714 15309107 14930486 
1391.918 14561170 14192374 13818487 13439931 13066076 12713525 12398862 
1395.293 12129572 11901687 11704147 11527418 11368345 11230343 11119442 
1398.668 11037288 10978528 10931602 10887261 10841975 10800124 10768025 
1402.043 10749650 10741669 10732091 10703121 10640095 10539155 10413839 
1405.419 10288455 10187970 10125595 10099210 10096632 10103517 10111012 
1408.794 10117557 10128376 10150490 10186987 10235869 10290083 10343185 
1412.169 10395139 10451986 10524083 10619857 10742756 10889232 11052345 
1415.544 11224902 11404264 11593194 11795212 12008700 12219533 12400295 
1418.920 12524687 12586247 12605962 12615888 12644679 12705643 12800774 
1422.295 12928148 13089125 13292113 13551665 13879479 14276223 14727416 
1425.670 15211504 15708191 16208816 16719352 17257036 17846236 18507770 
1429.045 19250246 20065504 20932780 21829454 22740066 23658188 24582216 
1432.421 25511414 26442744 27376852 28325706 29315380 30390816 31604670 
1435.796 32987446 34503336 36041172 37466232 38698932 39747264 40677388 
1439.171 41568448 42492176 43496136 44602100 45805280 47082920 48403484 
1442.546 49735836 51060180 52366780 53652916 54922376 56184024 57454712 
1445.922 58760732 60135300 61606324 63181132 64840376 66543088 68254608 
1449.297 69971872 71726056 73572200 75562136 77719976 80019768 82387744 
1452.672 84732504 86963192 89033432 90941768 92716056 94391024 95979816 
1456.047 97453168 98732016 99750296 100522440 101123832 101635152 102077784 
1459.422 102434984 102684944 102824016 102865712 102828888 102721920 
1462.316 102526864 102188992 101624392 100737160 99463816 97810616 95840936 
1465.691 93620944 91171992 88457552 85434296 82091960 78479384 74676864 
1469.066 70781760 66864104 62912492 58851592 54562572 49977520 45199944 
1472.441 40569584 36518808 33298358 30871240 29009820 27458240 26051904 
1475.817 24725020 23493246 22400752 21478632 20717988 20076262 19498412 
1479.192 18938602 18370212 17789172 17208288 16648905 16131334 15666589 
1482.567 15256906 14899657 14589747 14321150 14083521 13860527 13629407 
1485.942 13366392 13054603 12689881 12282823 11854729 11430355 11029743 
1489.318 10666751 10350277 10088357 9884928 9737096 9634266 9559370 9493224 
1493.175 9418995 9324061 9203629 9060933 8908071 8759319 8624847 8502918 
1497.032 8380822 8243934 8090109 7931446 7789742 7683123 7618948 7591163 
1500.890 7584588 7581722 7569281 7541432 7497807 7439997 7366590 7271193 
1504.747 7140853 6959203 6722135 6463874 6272287 6236857 6357075 6553173 
1508.605 6749158 6912136 7037053 7131960 7205563 7262669 7303608 7325982 
1512.462 7328577 7314121 7288883 7260748 7233897 7206776 7169518 7107945 
1516.319 7012505 6889244 6761643 6659078 6599226 6582406 6590647 6594483 
1520.177 6554922 6438887 6242336 6008649 5804604 5672353 5612503 5596694 
1524.034 5590317 5563433 5499202 5395089 5264908 5132251 5021489 4948423 
1527.892 4916017 4919770 4951138 5001780 5063793 5130172 5193880 5247167 
1531.749 5283086 5294691 5278391 5235899 5174868 5103821 5026484 4940347 
1535.607 4840087 4720791 4579996 4418827 4243599 4071651 3932638 3869349 
1539.464 3919063 4081317 4296735 4482129 4587095 4604206 4553409 4462578 
1543.321 4360421 4271772 4214590 4195888 4208534 4236839 4264076 4279736 
1547.179 4280003 4266954 4244602 4218404 4191639 4165009 4137612 4109112 
1551.036 4081685 4060012 4048440 4048808 4057771 4066601 4062621 4037002 
1554.894 3990050 3933808 3887302 3870051 3901109 3993728 4146878 4321131 
1558.751 4434660 4426660 4333781 4229278 4150825 4099646 4065129 4037236 
1562.609 4010817 3986205 3967011 3958384 3962028 3973999 3985268 3985970 
1566.466 3968415 3930899 3875834 3809613 3741229 3682078 3642883 3629116 
1570.323 3639307 3667475 3706105 3748581 3788488 3819306 3833613 3824889 
1574.181 3788923 3727526 3650768 3578734 3532500 3520942 3535239 3558623 
1578.038 3577565 3587320 3589559 3588757 3589592 3595338 3607466 3626009 
1581.896 3650768 3681276 3716865 3755934 3794939 3829468 3854606 3867744 
1585.753 3869516 3864201 3857414 3854105 3856946 3866039 3880013 3897164 
1589.610 3917124 3940662 3967947 3997073 4023458 4040280 4042587 4028608 
1593.468 4002925 3975136 3957715 3960892 3988846 4038708 4102188 4169224 
1597.325 4231353 4284722 4328795 4365341 4396099 4422744 4446175 4467868 
1601.183 4489862 4514001 4540585 4567438 4589706 4601560 4598480 4580063 
1605.040 4550262 4516411 4485912 4464319 4453707 4451765 4453071 4452100 
1608.898 4444635 4429271 4406476 4377490 4343888 4307109 4269296 4233394 
1612.755 4202479 4179027 4163638 4155542 4150190 4141726 4124298 4094629 
1616.612 4055731 4014362 3975337 3938154 3898301 3850695 3793869 3730400 
1620.470 3667408 3615819 3588823 3596307 3640610 3708845 3778494 3826794 
1624.327 3842271 3827630 3793401 3751957 3711819 3678235 3652305 3632357 
1628.185 3615718 3601118 3589057 3581139 3579269 3584012 3594603 3608936 
1632.042 3623236 3632859 3631957 3612812 3567242 3488474 3378097 3252358 
1635.900 3140272 3067155 3038592 3043731 3067789 3099958 3134098 3167707 
1639.757 3198982 3225853 3245181 3253694 3248753 3229492 3197647 3156559 
1643.614 3109803 3060448 3010398 2961055 2915220 2880463 2869523 2895106 
1647.472 2958686 3049637 3152354 3255029 3352452 3444487 3535105 3629785 
1651.329 3732639 3839898 3926151 3938689 3835452 3646859 3450566 3296693 
1655.187 3195477 3138871 3116744 3121249 3146947 3189302 3245882 3313053 
1659.044 3387180 3462289 3531330 3584347 3612344 3608903 3574658 3519004 
1662.901 3458448 3408118 3374324 3353387 3336926 3317594 3291786 3262006 
1666.759 3236368 3228156 3251691 3317093 3422278 3549169 3667576 3750653 
1670.616 3789090 3790961 3772177 3747378 3726156 3711051 3699856 3685720 
1674.474 3660625 3618725 3561095 3495823 3434101 3384676 3351551 3336425 
1678.331 3339063 3358329 3391254 3432664 3475983 3514862 3545060 3564836 
1682.189 3573656 3571284 3557587 3535673 3513693 3502203 3505242 3519138 
1686.046 3536508 3551407 3558923 3556117 3543356 3524984 3509952 3508916 
1689.903 3531197 3579870 3651236 3736115 3824521 3907528 3978447 4033859 
1693.761 4071584 4090314 4090114 4075196 4055363 4043022 4046032 4063089 
1697.618 4086936 4107039 4113327 4099446 4069711 4043992 4051550 4108176 
1701.476 4205590 4325448 4450929 4570955 4676075 4756867 4803534 4806549 
1705.333 4762696 4678319 4569147 4453071 4344657 4253335 4182640 4132795 
1709.191 4100984 4082488 4071417 4063055 4055698 4050513 4051316 4061684 
1713.048 4082254 4109881 4135772 4146510 4129918 4075832 3981456 3851163 
1716.905 3697383 3540183 3402541 3302102 3244580 3225552 3236201 3267248 
1720.763 3309781 3354088 3390686 3409087 3401907 3367445 3310950 3243178 
1724.620 3176185 3119614 3078434 3054909 3048969 3060515 3089913 3137235 
1728.478 3201252 3277129 3356927 3430961 3490879 3532900 3558122 3570716 
1732.335 3573856 3568210 3550338 3516031 3466063 3409688 3356893 3312719 
1736.193 3276328 3244246 3212568 3179289 3145078 3115242 3098089 3102127 
1740.050 3131128 3182259 3247217 3315858 3379066 3427788 3454807 3455742 
1743.907 3428456 3374624 3298630 3206926 3106298 3003025 2901610 2803487 
1747.765 2706420 2604175 2490723 2362076 2220978 2078494 1951499 1855621 
1751.622 1799588 1781422 1791037 1815559 1842710 1863374 1869797 1854789 
1755.480 1812597 1740368 1641676 1528343 1417831 1325560 1261520 1229288 
1759.337 1227526 1252348 1297809 1355971 1415437 1463608 1489806 1487246 
1763.194 1455330 1397653 1320541 1231381 1139249 1054809 989448 954114 
1767.052 955941 994629 1060888 1139282 1215531 1279265 1327055 1360558 
1770.909 1383858 1401775 1417631 1432757 1446586 1458156 1467132 1473947 
1774.767 1479699 1485119 1491003 1497321 1502773 1505001 1499947 1483356 
1778.624 1451241 1403138 1343141 1282223 1234471 1210913 1215100 1241050 
1782.482 1276075 1304655 1314060 1297510 1257333 1204500 1154697 1121908 
1786.339 1112374 1124665 1151475 1184067 1214967 1240220 1258729 1270758 
1790.196 1276108 1271655 1251285 1209119 1143834 1062283 977028 901319 
1794.054 844047 808759 795116 799663 817290 841425 865627 883622 890594 
1798.393 883522 861942 828810 789838 753923 729329 721263 729528 749077 
1802.733 771548 787813 791531 779747 754155 720102 686250 661826 654061 
1807.073 667003 698961 743136 788311 822535 836179 825224 793622 752728 
1811.412 718044 702213 711606 742937 785655 824494 844346 834188 789439 
1815.752 714261 621143 528842 455434 414704 411288 441005 492485 552065 
1820.091 608369 653563 684823 702346 706893 697600 671317 622869 550075 
1824.431 456694 355474 264191 200175 172132 178330 207269 241780 262865 
1828.771 253085 204352 123077 30616 -49631 -100782 -120028 -115224 -98926 
1833.110 -83556 -77758 -84649 -100881 -117046 -119365 -95349 -35816 60672 
1837.450 187479 328482 463693 574626 647756 678850 671051 634383 581825 
1841.789 528610 490594 481041 508109 570578 656384 743534 809589 838370 
1846.129 822402 763349 669857 557307 444256 351230 294661 280470 302818 
1850.469 346123 392451 425782 438120 430292 410426 388338 371492 360979 
1854.808 353020 342077 325730 306830 294263 298474 325365 373581 433642 
1859.148 491589 534316 555051 555283 543904 531430 525492 527814 532624 
1863.487 532624 522340 502436 480643 469962 482766 527748 603823 698629 
1867.827 788145 845840 851019 800228 707258 595727 488703 402002 345062 
1872.167 319894 324205 352623 398785 458220 528046 607937 698695 798004 
1876.506 900389 994263 1065671 1101379 1092775 1039896 951458 845077 739120 
1880.846 649714 586072 549146 534847 536274 547454 563179 579470 592011 
1885.185 596424 588461 567592 538330 510497 498058 514909 567725 652103 
1889.525 751135 842255 904074 926686 911246 867387 806900 739385 672014 
1893.865 609596 557539 523667 516469 542146 599244 678219 760096 823764 
1898.204 852081 836013 780311 701616 623201 565634 541515 550937 583882 
1902.544 622703 649282 650045 617527 550240 451188 326028 181910 29125 
1906.883 -119365 -250023 -348033 -402325 -407158 -362600 -275918 -158285 
1910.741 -22895 118337 255273 379152 482003 555516 593770 594267 560525 
1915.080 502436 432680 365058 310510 272745 248145 227093 197822 153106 
1919.420 93216 25182 -40421 -93063 -126421 -141790 -149706 -169977 -223431 
1923.760 -323499 -471274 -653739 -846213 -1017942 -1140631 -1191653 -1159963 
1927.617 -1046238 -861392 -621216 -342239 -40587 269728 577180 869843 
1931.474 1135063 1359029 1525948 1621954 1638650 1575994 1444027 1263248 
1935.332 1059758 859751 688607 563942 493148 471753 484889 511194 528743 
1939.672 521212 478420 398619 285576 147537 -5798 -165837 -323665 -468990 
1944.011 -588856 -668891 -695919 -664921 -581179 -460617 -327505 -205018 
1947.869 -106744 -32967 30119 104417 210849 360349 549411 760030 966966 
1952.208 1145196 1276441 1357367 1396456 1409753 1413941 1421986 1436081 
1956.066 1449844 1448880 1415570 1335929 1204434 1028471 833424 660399 
1959.923 557141 570943 730789 1037571 1463442 1956425 2453235 2885966 
1963.780 3201018 3358630 3340065 3140239 2766105 2236198 1581514 856630 
1967.638 137461 -494177 -961280 -1217987 -1253043 -1090033 -777423 -386667 
1971.495 4705 335081 565634 695277 754620 796974 879372 1047403 1322037 
1975.835 1693664 2121144 2537713 2873859 3064185 3061582 2854114 2464864 
1979.692 1950401 1384656 847832 406247 106273 -27533 2783 174552 447871 
1984.032 781041 1137987 1493697 1835256 2152743 2434841 2663679 2818961 
1987.889 2880363 2838138 2694618 2464931 2172690 1847169 1511418 1181077 
1991.747 860680 548184 241979 -48969 -308302 -512248 -644177 -702238 -705744 
1996.086 -689038 -693504 -750036 -866121 -1018504 -1158046 -1228791 -1185341 
1999.944 -1011992 -727676 -385475 -50327 216817 376532 424289 388372 316943 
2004.283 257096 243404 282924 357464 430790 467242 451984 398122 346024 
2008.623 351595 468569 723388 1107092 1568179 2033151 2415016 2643244 
2012.480 2676981 2514684 2190173 1761627 1298407 858555 485353 210617 55072 
2016.820 36813 168254 448667 855534 1342045 1841812 2272136 2558777 2647611 
2021.160 2522716 2216082 1798889 1370895 1026146 844081 873064 1122938 
2025.017 1566583 2146750 2788314 3403510 3913045 4251796 4378126 4288737 
2028.874 4024227 3663699 3300499 3023878 2886800 2895439 3009998 3159697 
2032.732 3274525 3304506 3242711 3119447 2990480 2902544 2884699 2932165 
2036.589 3016137 3095820 3138003 3124787 3056811 2940739 2781111 2574843 
2040.447 2313772 1991707 1617464 1216761 833524 517795 308653 225137 260445 
2044.786 386249 565668 771017 988319 1216262 1458355 1707269 1939484 2119679 
2049.126 2209721 2186476 2051860 1832595 1573932 1324230 1125961 1004990 
2052.983 967895 1004957 1097227 1221579 1352514 1469193 1550721 1581547 
2056.841 1553680 1469858 1343507 1197988 1061519 957369 899326 888137 914766 
2061.180 967032 1034715 1113836 1203138 1299072 1390905 1459685 1483922 
2065.038 1449612 1358497 1232245 1107292 1026877 1020733 1100017 1253079 
2068.895 1451872 1659603 1846137 1991707 2090213 2144452 2160668 2144286 
2072.752 2099435 2031819 1952032 1876452 1824309 1810468 1838018 1895221 
2076.610 1956159 1991408 1973001 1886901 1736077 1539149 1323067 1117922 
2080.467 948204 829241 767565 760229 798501 868383 953118 1036807 1104468 
2084.807 1145129 1153003 1127954 1073277 996854 908424 818684 740414 686483 
2089.146 667036 688341 746322 827316 908756 968095 989282 972013 932862 
2093.486 903045 918385 1002931 1160943 1371992 1597942 1793233 1924108 
2097.344 1978227 1967808 1922677 1877118 1857651 1872625 1912060 1954262 
2101.201 1977860 1968141 1925473 1862875 1801185 1759897 1750382 1771707 
2105.058 1811965 1850263 1863075 1831863 1747654 1614537 1449911 1284350 
2108.916 1152372 1084670 1099851 1197589 1357267 1541643 1709098 1823977 
2112.773 1866070 1837153 1758832 1664193 1583443 1538484 1533064 1555343 
2116.631 1582877 1592721 1569576 1510088 1421820 1319677 1219951 1133103 
2120.488 1062748 1006120 957369 911844 869080 832893 808261 798269 798734 
2124.828 798136 781971 735270 650444 532060 397492 273508 187744 162387 
2129.167 206010 312798 462996 633388 801921 954347 1087394 1206361 1320441 
2133.507 1436547 1556806 1676101 1787444 1883074 1957823 2010448 2039409 
2137.364 2040475 2005987 1926604 1796727 1623184 1427870 1244905 1118221 
2141.222 1084438 1164863 1357234 1636222 1959088 2277265 2550145 2752867 
2145.079 2880830 2944642 2965892 2970396 2980605 3017238 3094051 3216940 
2148.937 3378465 3558990 3722948 3824889 3823919 3694108 3439311 3094518 
2152.794 2721891 2395859 2177985 2108225 2192104 2407753 2716690 3087444 
2156.651 3506144 3974033 4496960 5061848 5617202 6084986 6373719 6413767 
2160.509 6186474 5725295 5107475 4433321 3804599 3290216 2920957 2684983 
2164.366 2544379 2451302 2370072 2288956 2223842 2207423 2273668 2445271 
2168.224 2718190 3057611 3404745 3692036 3862162 3889307 3788755 3615685 
2172.081 3448729 3355391 3375927 3500800 3675228 3812955 3839229 3714894 
2175.938 3457412 3131628 2828533 2632443 2583409 2670680 2838472 3015970 
2179.796 3139872 3184362 3164236 3125254 3118813 3184162 3330649 3543423 
2183.653 3791998 4044694 4280271 4487418 4660635 4796565 4890348 4938202 
2187.511 4942726 4916586 4876877 4840489 4810771 4772076 4692721 4535797 
2191.368 4279502 3929929 3525518 3126222 2799285 2590642 2511518 2538513 
2195.226 2624809 2719457 2784913 2809190 2801320 2782945 2770840 2770373 
2199.083 2772541 2760770 2720824 2649377 2557311 2465131 2394759 2359411 
2202.940 2359977 2386363 2418415 2437074 2433042 2408553 2381266 2378501 
2206.798 2430976 2562077 2778610 3062750 3374959 3657351 3846516 3895726 
2210.655 3782472 3519338 3151319 2748532 2383431 2113985 1974233 1966411 
2214.513 2069338 2244558 2452435 2655678 2826232 2946276 3008663 3013968 
2218.370 2971564 2898275 2815493 2742397 2694051 2672481 2667380 2660779 
2222.228 2634543 2578176 2495989 2405487 2334759 2311441 2353015 2461132 
2226.085 2621642 2806522 2979771 3111204 3177854 3171579 3099691 2982139 
2229.942 2847743 2725826 2642077 2611675 2636076 2701919 2786714 2864453 
2233.800 2910316 2908882 2854681 2751733 2610209 2444038 2267572 2092776 
2237.657 1930864 1789241 1672043 1579851 1507827 1450110 1401476 1361389 
2241.515 1335630 1335131 1369266 1442730 1548559 1670447 1784350 1869065 
2245.372 1911495 1911328 1878549 1828036 1773637 1721706 1671444 1620956 
2249.229 1570207 1526780 1503738 1512515 1557172 1628639 1705406 1758932 
2253.087 1767083 1721174 1630934 1520163 1419094 1353312 1335198 1363882 
2256.944 1429233 1518966 1621754 1731287 1843143 1950967 2046200 2118347 
2260.802 2159336 2170092 2161135 2150279 2155274 2186643 2240128 2299316 
2264.659 2338790 2335792 2279230 2172690 2033384 1886003 1755272 1656676 
2268.517 1598374 1579884 1596412 1641044 1706604 1784183 1862942 1929766 
2272.374 1972002 1980157 1951666 1890495 1807107 1713257 1620191 1536755 
2276.231 1469559 1426441 1416202 1447650 1526813 1652220 1810934 1978959 
2280.089 2128702 2232568 2273701 2250586 2176120 2073167 1965778 1873823 
2283.946 1806475 1763323 1736044 1713489 1685747 1646000 1592954 1530338 
2287.804 1466301 1413144 1385853 1398351 1459851 1570606 1719477 1885004 
2291.661 2038244 2153509 2213651 2217181 2176919 2118214 2067807 2044702 
2295.519 2056221 2095373 2146217 2190306 2215316 2218380 2206890 2192204 
2299.376 2185844 2192770 2209421 2224608 2224175 2197233 2139258 2055622 
2303.233 1959987 1871793 1810900 1792667 1825141 1906536 2025561 2163699 
2307.091 2301581 2420181 2507619 2559944 2581509 2580942 2567710 2548145 
2310.948 2523983 2492090 2448003 2389295 2318769 2244058 2176752 2128403 
2314.806 2107060 2115584 2152011 2210620 2286292 2374236 2471529 2575109 
2318.663 2679515 2776443 2854847 2903578 2914919 2887834 2828566 2749033 
2322.521 2665079 2590175 2533181 2496822 2477460 2466997 2456800 2438940 
2326.378 2408519 2365674 2314705 2265274 2229071 2216448 2234066 2281329 
2330.235 2350416 2427478 2499288 2556178 2596242 2625109 2651778 2683882 
2334.093 2723358 2764471 2796918 2811891 2806789 2789548 2776943 2789281 
2337.950 2839672 2928963 3040394 3147314 3218342 3231361 3181759 3085742 
2341.808 2973332 2879462 2831768 2839872 2893938 2966760 3026614 3046267 
2345.665 3012534 2930664 2819161 2701486 2598509 2526315 2493589 2503387 
2349.522 2554745 2643210 2760170 2893538 3028883 3150785 3245815 3306977 
2353.380 3334589 3336792 3326175 3319564 3330983 3369983 3437641 3526186 
2357.237 3619394 3696079 3737753 3732372 3680942 3596340 3501000 3417903 
2361.095 3362436 3337527 3333754 3334455 3323103 3292787 3249621 3209296 
2364.952 3190237 3205458 3252959 3317260 3371285 3387781 3348446 3249588 
2368.810 3104096 2936535 2775842 2644777 2557211 2514051 2505586 2516217 
2372.667 2529315 2532481 2518950 2487957 2444371 2395859 2349816 2310874 
2376.524 2279863 2252817 2221810 2177985 2114318 2028091 1922644 1806209 
2380.382 1691568 1590825 1513313 1462943 1437045 1427837 1424546 1417731 
2384.239 1400778 1372225 1335962 1298972 1269396 1254076 1256236 1275710 
2388.097 1308876 1350254 1394628 1437411 1475477 1506830 1529240 1540014 
2391.954 1536323 1515242 1476009 1421122 1356935 1292891 1239622 1206328 
2395.812 1197357 1211810 1243177 1282422 1319910 1349290 1368535 1380435 
2399.669 1389875 1401276 1417199 1436181 1454033 1466234 1469891 1465237 
2403.526 1456726 1450077 1450709 1461015 1478469 1496024 1504469 1495658 
2407.384 1465636 1417066 1358763 1305087 1270392 1266770 1299537 1366508 
2411.241 1456493 1554212 1642740 1707103 1738472 1735012 1701614 1648162 
2415.099 1587300 1531668 1491136 1472052 1475244 1496689 1526946 1553448 
2418.956 1563357 1546032 1497653 1423249 1337757 1261520 1217259 1222044 
2422.813 1281226 1386085 1514544 1638483 1729058 1767249 1748486 1683519 
2426.671 1593186 1502308 1432258 1392966 1383160 1390805 1400479 1396689 
2430.528 1371261 1324263 1264012 1203603 1156890 1135462 1144299 1182007 
2434.386 1240452 1308211 1371593 1419393 1444858 1447517 1433023 1411249 
2438.243 1393631 1389509 1403437 1434053 1475178 1518401 1555376 1581181 
2442.101 1594450 1596279 1588897 1573466 1548626 1512150 1461846 1397387 
2445.958 1322768 1245437 1174232 1117988 1083109 1071716 1082046 1109617 
2449.815 1148485 1192572 1236199 1274812 1304655 1323433 1331143 1331376 
2453.673 1330113 1335298 1354509 1390972 1442730 1501510 1555343 1591158 
2457.530 1600303 1580749 1538318 1484587 1432923 1394628 1374817 1371659 
2461.388 1378008 1384889 1384058 1372025 1349988 1323566 1299770 1285081 
2465.245 1283486 1295449 1319478 1351850 1389409 1429266 1469326 1508392 
2469.103 1544303 1574364 1595082 1602565 1593319 1566383 1523554 1470157 
2472.960 1414340 1365677 1332207 1318979 1326623 1350852 1384058 1418196 
2476.817 1446553 1466500 1479001 1488011 1498551 1513513 1533696 1556773 
2480.675 1579053 1596845 1608484 1613806 1614571 1613041 1610779 1608917 
2484.532 1608385 1610779 1619293 1637885 1670513 1718479 1780257 1849232 
2488.390 1915355 1968940 2000595 2005921 1985150 1943611 1889164 1831497 
2492.247 1779193 1739237 1716450 1712558 1726330 1753908 1788043 1820317 
2496.104 1842111 1847901 1836721 1813729 1787943 1770842 1771940 1794198 
2499.962 1834524 1883074 1927769 1957124 1965578 1953862 1929034 1900446 
2503.819 1876519 1861644 1854889 1851461 1845904 1834624 1817821 1799422 
2507.677 1784316 1776132 1774934 1776631 1774468 1762691 1739038 1706204 
2511.534 1671345 1643439 1630002 1633727 1651421 1675203 1696192 1705938 
2515.392 1700250 1679527 1647031 1607320 1564022 1519332 1473981 1429898 
2519.249 1390141 1359960 1346299 1353944 1385022 1436646 1501643 1571338 
2523.106 1636587 1692101 1736509 1771940 1801917 1830066 1857983 1884805 
2526.964 1908500 1926804 1938819 1944809 1946141 1944277 1939983 1932661 
2530.821 1920980 1903275 1878648 1846936 1809536 1767914 1724267 1680758 
2534.679 1639148 1601368 1568977 1542707 1522590 1508027 1497487 1489873 
2538.536 1485119 1484354 1490205 1505467 1531834 1569542 1616400 1668617 
2542.394 1722538 1775333 1826040 1874888 1922444 1967875 2008085 2038544 
2546.251 2053658 2050395 2029023 1994204 1954595 1920247 1899913 1899115 
2550.108 1918350 1953862 1998964 2046034 2089181 2124640 2151511 2170592 
2553.966 2183979 2193070 2198365 2198731 2192404 2177119 2152044 2118081 
2557.823 2078760 2040575 2010681 1996834 2004223 2034749 2085352 2150013 
2561.681 2219312 2283394 2334459 2366807 2378134 2369105 2342854 2303713 
2565.538 2257680 2211819 2173988 2151511 2149913 2170958 2211453 2262976 
2569.396 2314239 2353048 2370571 2364375 2338989 2305078 2275899 2264042 
2573.253 2276865 2315538 2374569 2444971 2517017 2583009 2638843 2684416 
2577.110 2721658 2752834 2779410 2800886 2815593 2822163 2820362 2811958 
2580.968 2800953 2792616 2791682 2801220 2822063 2850978 2882998 2911317 
2584.825 2929363 2932866 2921324 2898475 2871124 2848010 2837905 2845942 
2588.683 2873525 2917455 2972164 3030417 3086476 3137235 3181592 3219945 
2592.540 3252592 3278598 3295992 3303003 3298563 3284908 3267114 3251591 
2596.397 3244881 3251123 3270820 3301267 3337260 3372855 3402976 3424182 
2600.255 3434268 3432431 3418605 3392957 3357461 3315724 3272823 3235133 
2604.112 3208495 3196178 3199783 3218009 3247885 3287045 3333821 3387447 
2607.970 3447059 3510353 3573322 3629651 3673891 3701827 3713089 3710382 
2611.827 3698953 3683648 3666974 3648830 3626778 3598612 3564502 3528391 
2615.685 3497393 3479757 3481126 3502937 3540884 3586652 3629183 3659723 
2619.542 3672822 3668377 3649966 3625007 3600650 3583378 3577264 3583545 
2623.399 3601285 3627346 3657685 3688393 3715729 3737820 3753895 3764858 
2627.257 3771308 3774049 3772478 3766261 3754931 3739992 3724986 3715094 
2631.114 3715328 3728562 3753628 3785848 3817201 3840199 3850294 3847820 
2634.972 3838126 3829067 3828532 3840901 3865438 3896763 3926853 3948052 
2638.829 3955441 3948352 3929963 3906224 3883624 3867744 3862830 3870085 
2642.687 3889408 3918896 3955542 3995267 4034427 4069477 4098676 4121623 
2646.544 4139385 4153803 4165879 4176183 4183208 4185751 4182506 4173908 
2650.401 4162232 4151427 4145004 4145841 4154338 4168589 4185584 4201308 
2654.259 4213486 4221215 4225865 4229312 4234330 4242962 4256045 4273646 
2658.116 4294928 4318621 4343084 4367416 4390811 4413706 4436735 4461541 
2661.974 4489661 4522003 4558532 4597643 4637092 4673463 4703976 4726385 
2665.831 4739281 4742128 4735027 4718915 4695234 4666798 4637561 4612411 
2669.688 4596102 4592117 4601225 4621051 4647139 4673731 4695937 4711278 
2673.546 4719149 4720992 4718312 4711847 4700794 4683611 4659832 4630528 
2677.403 4599953 4573901 4557795 4554815 4564525 4582741 4602632 4617367 
2681.261 4622256 4616262 4601728 4583043 4565597 4553275 4548521 4551735 
2685.118 4562349 4578489 4598480 4619912 4640206 4656617 4667032 4670080 
2688.976 4666329 4657421 4646268 4635417 4626543 4619744 4613918 4607186 
2692.833 4597877 4584884 4567874 4547382 4523945 4498600 4472889 4448987 
2696.690 4429673 4418224 4416886 4425823 4442560 4462511 4479551 4488758 
2700.548 4487485 4476739 4460704 4445238 4435397 4434325 4441689 4454778 
2704.405 4469709 4483133 4493545 4502149 4511456 4524581 4544000 4570988 
2708.263 4605345 4646067 4691415 4739984 4790200 4840053 4887466 4930326 
2712.120 4966789 4996686 5020987 5042774 5065670 5093159 5127155 5167088 
2715.978 5210345 5252231 5287916 5313843 5328803 5334472 5334472 5334069 
2719.835 5338564 5351579 5374994 5408207 5448401 5491316 5532457 5567930 
2723.692 5595049 5613006 5622438 5625425 5624150 5620424 5615087 5607938 
2727.550 5597768 5583402 5564339 5541519 5516517 5491383 5467626 5444609 
2731.407 5420016 5389353 5348695 5295362 5230130 5157264 5084343 5019646 
2735.265 4970107 4939107 4925802 4925500 4931767 4938503 4941787 4939911 
2739.122 4933711 4924562 4913369 4899228 4880563 4855533 4824071 4787553 
2742.979 4749665 4714259 4684382 4661104 4642952 4627380 4611875 4595299 
2746.837 4579091 4566367 4561043 4566066 4581904 4606550 4635752 4664889 
2750.694 4689774 4708397 4720858 4728964 4735227 4742061 4750737 4761055 
2754.552 4771908 4781054 4786984 4788826 4787487 4785409 4786817 4795996 
2758.409 4816700 4850105 4894302 4943865 4991390 5029065 5050652 5054138 
2762.267 5041601 5018975 4993568 4972352 4959550 4956031 4959382 4966387 
2766.124 4974531 4983346 4995345 5014249 5043680 5085315 5137415 5195020 
2769.981 5251862 5301668 5340711 5368990 5390359 5410824 5437060 5473666 
2773.839 5522021 5579845 5641705 5701593 5754069 5796646 5830260 5859578 
2777.696 5891047 5931622 5986746 6058676 6146649 6246034 6350116 6451666 
2781.554 6543856 6622439 6686130 6736841 6779009 6818960 6863155 6916546 
2785.411 6982368 7060829 7149274 7243802 7339563 7432177 7519619 7601313 
2789.269 7678975 7755672 7834644 7918928 8010214 8108879 8214015 8323839 
2793.126 8436055 8548198 8658782 8766588 8871580 8974973 9078459 9184135 
2796.983 9293967 9408736 9528209 9650765 9774134 9895843 10014705 10130649 
2800.841 10245401 10361611 10482195 10609332 10743706 10884849 11030966 
2804.216 11180056 11331034 11483697 11639375 11799978 11967315 12142520 
2807.591 12325226 12513876 12706530 12901011 13096808 13294403 13495538 
2810.967 13702512 13917523 14141333 14373410 14612432 14856041 15102704 
2814.342 15351841 15604144 15861576 16126005 16399333 16682371 16974862 
2817.717 17275964 17584418 17899578 18221364 18550648 18889248 19239716 
2821.092 19604818 19988024 20392752 20822258 21279264 21765316 22280790 
2824.468 22824744 23395674 23992602 24615738 25267830 25953648 26680364 
2827.843 27455416 28286874 29181798 30146434 31186904 32309428 33520826 
2831.218 34828980 36241744 37766308 39408704 41173156 43063160 45082816 
2834.593 47237456 49536292 51991908 54618932 57434100 60451880 63683024 
2837.969 67132256 70797472 74669080 78730696 82963240 87345040 91854920 
2841.344 96476872 101199072 106015736 110926832 115934992 121042600 
2844.237 126248792 131545376 136917136 142338640 147774736 153184064 
2847.130 158513632 163702032 168682272 173375616 177699232 181571808 
2850.023 184910352 187642848 189708672 191060368 191669776 191529568 
2852.916 190655984 189088000 186890192 184145152 180942064 177375808 
2855.809 173531968 169482512 165290080 161003984 156668032 152325632 
2858.702 148017504 143787600 139681104 135738816 132001728 128505840 
2861.595 125279528 122346392 119720280 117406224 115400480 113692152 
2864.488 112264704 111097416 110168984 109455688 108931560 108568920 
2867.381 108333888 108187768 108088992 107990280 107845464 107610816 
2870.274 107245088 106717088 106003848 105094680 103992864 102715168 
2873.167 101290984 99757048 98156776 96533440 94925968 93372160 91903392 
2876.543 90547888 89330936 88272784 87389048 86689192 86175560 85845848 
2879.918 85694472 85715616 85905568 86262888 86787864 87480424 88337008 
2883.293 89350432 90508912 91799208 93208072 94724696 96341968 98055928 
2886.668 99863744 101762120 103744976 105803216 107925152 110096184 
2889.562 112302208 114528976 116763968 118997624 121223080 123436080 
2892.455 125635192 127819944 129989784 132142872 134275856 136384384 
2895.348 138465248 140517056 142542944 144549776 146547712 148547600 
2898.241 150560368 152594160 154654048 156741712 158856416 160994720 
2901.134 163151616 165322144 167503312 169694912 171902352 174135328 
2904.027 176407552 178732160 181120016 183577392 186106112 188705824 
2906.920 191376752 194122928 196951888 199872624 202892224 206013408 
2909.813 209233152 212545792 215945504 219431072 223005824 226676112 
2912.706 230445552 234309760 238252672 242248048 246260128 250252688 
2915.599 254190384 258038640 261763536 265323968 268668096 271736928 
2918.492 274461600 276772960 278610304 279919744 280660928 280805248 
2921.385 280334784 279243872 277538496 275238624 272374592 268987008 
2924.278 265123344 260833056 256171440 251197392 245972160 240561872 
2927.171 235028032 229423280 223790160 218155584 212538080 206951840 
2930.064 201411696 195937840 190552848 185275248 180117728 175081680 
2932.958 170159792 165340896 160617120 155989024 151467936 147072304 
2935.851 142823680 138741744 134838928 131122736 127596512 124262712 
2938.744 121126064 118194256 115475856 112980056 110713560 108680320 
2941.637 106882760 105321928 103999056 102915600 102072288 101468032 
2944.530 101099248 100959096 101037320 101321608 101798560 102451136 
2947.423 103262520 104211920 105275184 106426232 107635688 108871352 
2950.316 110100800 111287888 112394952 113385408 114221856 114872400 
2953.209 115313488 115529984 115517096 115278664 114824016 114164960 
2956.102 113314816 112288088 111098824 109762408 108293496 106704120 
2958.995 105004240 103199568 101293120 99287456 97185696 94992680 92714368 
2962.370 90356304 87922280 85414848 82837400 80196240 77503824 74778240 
2965.746 72043576 69324656 66643632 64018676 61460984 58977012 56570760 
2969.121 54245076 52003596 49850548 47788640 45819676 43942376 42153768 
2972.496 40449408 38825432 37278020 35805140 34405052 33076826 31819746 
2975.871 30633308 29517126 28470772 27493608 26582954 25734778 24942190 
2979.247 24196512 23488734 22811054 22157652 21526016 20915952 20328582 
2982.622 19765620 19227282 18712650 18220014 17746578 17290136 16849396 
2985.997 16424349 16015874 15626743 15260406 14920507 14609862 14329095 
2989.372 14075650 13843492 13623219 13404287 13176654 12933780 12673914 
2992.748 12400704 12120884 11843219 11575532 11322021 11083649 10857943 
2996.123 10641419 10430196 10221960 10016299 9814293 9617870 9428713 9248236 
2999.980 9076902 8914056 8758676 8609131 8463454 8320259 8178798 8039646 
3003.838 7904924 7777665 7660898 7556266 7463491 7379599 7300406 7221229 
3007.695 7138259 7050254 6958159 6864300 6770360 6677314 6583347 6485802 
3011.552 6381721 6270102 6153236 6036065 5925206 5827137 5745474 5680376 
3015.410 5628513 5584208 5542156 5498396 5451555 5402705 5354464 5309147 
3019.267 5268228 5231640 5198105 5165613 5132553 5096881 5057021 5011366 
3023.125 4958377 4896614 4825881 4747488 4664487 4581536 4503388 4434426 
3026.982 4377390 4332844 4300115 4277728 4264243 4258822 4261265 4270601 
3030.840 4285090 4301554 4314973 4320662 4314069 4291984 4253804 4200940 
3034.697 4136274 4063958 3988010 3912410 3839764 3771843 3708912 3650568 
3038.554 3596340 3545862 3500833 3464192 3440045 3432564 3443786 3471874 
3042.412 3511154 3552209 3584714 3600283 3594436 3568678 3529894 3486804 
3046.269 3447927 3418170 3398100 3383607 3368748 3348345 3319764 3284140 
3050.127 3245581 3209663 3180791 3161766 3152588 3151253 3153989 3156626 
3053.984 3155458 3147081 3129426 3101960 3065887 3024578 2982873 2945976 
3057.842 2918656 2903278 2899575 2904812 2914453 2923492 2927762 2924893 
3061.699 2913719 2895573 2872091 2845342 2817994 2792249 2769873 2752367 
3065.556 2740530 2733694 2731260 2731761 2733794 2736162 2737596 2736162 
3069.414 2729626 2715056 2689750 2652111 2603275 2547246 2490690 2440906 
3073.271 2404188 2383964 2379333 2386330 2399290 2412984 2424279 2432676 
3077.129 2440239 2449836 2463298 2480959 2500987 2520483 2536181 2545346 
3080.986 2547079 2540680 2526615 2505386 2478160 2446237 2411818 2377901 
3084.844 2348018 2325665 2313606 2313040 2323666 2343620 2369605 2397158 
3088.701 2421947 2439373 2446037 2440273 2422746 2396258 2365341 2335159 
3092.558 2310308 2292887 2283061 2278397 2275466 2270603 2260744 2244657 
3096.416 2222077 2193669 2160702 2125706 2091345 2061847 2041973 2035581 
3100.273 2044736 2069205 2103963 2142254 2176020 2198298 2204792 2195368 
3104.131 2172423 2141089 2106461 2073833 2047233 2029889 2023564 2029189 
3107.988 2046234 2072434 2103597 2134796 2161135 2179217 2188175 2189507 
3111.845 2186376 2182780 2181414 2183279 2187675 2192970 2197666 2201096 
3115.703 2203627 2205991 2209222 2213251 2217281 2220312 2221111 2219546 
3119.560 2215549 2209655 2202661 2194335 2184978 2174821 2164598 2155141 
3123.418 2148415 2145551 2146283 2149347 2152510 2153243 2150246 2143786 
3127.275 2135362 2127071 2120478 2115051 2109257 2099935 2084620 2062513 
3131.133 2036147 2010215 1991042 1984584 1994071 2019170 2055788 2097604 
3134.990 2137126 2167428 2183745 2183779 2167795 2138425 2100301 2060050 
3138.847 2024895 2002293 1997599 2013444 2047566 2093809 2142288 2182513 
3142.705 2205925 2208622 2191705 2160768 2124141 2088815 2059117 2035581 
3146.562 2015541 1995702 1974532 1953230 1936056 1928535 1934559 1955094 
3150.420 1986848 2023231 2056654 2080424 2091312 2088981 2075231 2053758 
3154.277 2027958 2000894 1975897 1956791 1947838 1953330 1975664 2015008 
3158.135 2067307 2126039 2183779 2233334 2270703 2294852 2306511 2307310 
3161.992 2298150 2278664 2248454 2208023 2160435 2110756 2065975 2031886 
3165.849 2011913 2005755 2009782 2019070 2029656 2039509 2050229 2064611 
3169.707 2085618 2114119 2148581 2185177 2219079 2245523 2261044 2263742 
3173.564 2252518 2227405 2188907 2139025 2081723 2023064 1970205 1930964 
3177.422 1910995 1912427 1932795 1966810 2007186 2047000 2081756 2108591 
3181.279 2126671 2136161 2136461 2127603 2109490 2083321 2052526 2021766 
3185.136 1996900 1982787 1982188 1994570 2017106 2045169 2073733 2098903 
3188.994 2118613 2132432 2141256 2146250 2148681 2149480 2148914 2147349 
3192.851 2145085 2142288 2139491 2136694 2133763 2129635 2123308 2113353 
3196.709 2098836 2079792 2056487 2030488 2003491 1976729 1950867 1926638 
3200.566 1904240 1884539 1868798 1859281 1856819 1862176 1873757 1887833 
3204.424 1899414 1903474 1896186 1876186 1845106 1806775 1766284 1728559 
3208.281 1697722 1675569 1662663 1658040 1659903 1665856 1673473 1680592 
3212.138 1685315 1687144 1687444 1688475 1693431 1704841 1723369 1746423 
3215.996 1769711 1787211 1794198 1788176 1770276 1744560 1717282 1693464 
3219.853 1676999 1668118 1664859 1663362 1660402 1653616 1642973 1630102 
3223.711 1617597 1608784 1606323 1611245 1623317 1639514 1655479 1665723 
3227.568 1665491 1652585 1628639 1598873 1571803 1555642 1556573 1575761 
3231.426 1609549 1649259 1684749 1707934 1713689 1702612 1678829 1649193 
3235.283 1621122 1599971 1589096 1589362 1599073 1615036 1632729 1647763 
3239.140 1655878 1655180 1646399 1633661 1622486 1618894 1626643 1645202 
3242.998 1669848 1693331 1708466 1710928 1701281 1684483 1667719 1656178 
3246.855 1652120 1652885 1653151 1648162 1635623 1617929 1601467 1593286 
3250.713 1598807 1618827 1649426 1682621 1708999 1721839 1717415 1696957 
3254.570 1665125 1629171 1597344 1577124 1574929 1594650 1637352 1699285 
3258.427 1773138 1847002 1908200 1946707 1956159 1938086 1899714 1852959 
3262.285 1810102 1780224 1766950 1768680 1779559 1792435 1802449 1807174 
3266.142 1807939 1807507 1808904 1813396 1820117 1825807 1826738 1819851 
3270.000 1803514 1778394 1746889 1712658 1678895 1648561 1622985 1601999 
3273.857 1584740 1570606 1558835 1550222 1546099 1547728 1555908 1569476 
3277.715 1586136 1602432 1615169 1622519 1625213 1625346 1626444 1631432 
3281.572 1641643 1656344 1672908 1688209 1699818 1707069 1711161 1713789 
3285.429 1717016 1721041 1724567 1725099 1719743 1706371 1684550 1655280 
3289.287 1620889 1583675 1545534 1508160 1472518 1440004 1412146 1391038 
3293.144 1378606 1376479 1385587 1405232 1434386 1471088 1513380 1558968 
3297.002 1606123 1652818 1697356 1737308 1770443 1794264 1806542 1805344 
3300.859 1790205 1762824 1726796 1688575 1654880 1632364 1625113 1633893 
3304.717 1654548 1680458 1703643 1717781 1719976 1711926 1698953 1687277 
3308.574 1682920 1688708 1704042 1725698 1749650 1773337 1795662 1817455 
3312.431 1839449 1861677 1882475 1898050 1904373 1899048 1881444 1853957 
3316.289 1820483 1785414 1752245 1722504 1697157 1676800 1662065 1654947 
3320.146 1657608 1671278 1694662 1724467 1754973 1779925 1793765 1794131 
3324.004 1781122 1757235 1726629 1693564 1661366 1632530 1608717 1591490 
3327.861 1581946 1580583 1587500 1600902 1618861 1638284 1657209 1674471 
3331.719 1690471 1706337 1723203 1740901 1758499 1773969 1784682 1789806 
3335.576 1789873 1787311 1785381 1786812 1793333 1804279 1817056 1828934 
3339.433 1837319 1841080 1840847 1839016 1838917 1843475 1854922 1873424 
3343.291 1897650 1924641 1950334 1971104 1983419 1985083 1975464 1955061 
3347.148 1925739 1889963 1850796 1810900 1773737 1742531 1720109 1708766 
3351.006 1709065 1719344 1735511 1752511 1764687 1767881 1760895 1745259 
3354.863 1725099 1704841 1687776 1675236 1665657 1656510 1645701 1633129 
3358.720 1620923 1612708 1611976 1620291 1636987 1658705 1681257 1701714 
3362.578 1718779 1733615 1748619 1764954 1782087 1796760 1804046 1800020 
3366.435 1782719 1754241 1719111 1684151 1655180 1635956 1627608 1628040 
3370.293 1634692 1644736 1656011 1667520 1679061 1689739 1699219 1706371 
3374.150 1710363 1711028 1708633 1703477 1696059 1685980 1672775 1656045 
3378.008 1636022 1614504 1594483 1579020 1570573 1570340 1577024 1588231 
3381.865 1600702 1611843 1620723 1628173 1636055 1647164 1663495 1685481 
3385.722 1711926 1740036 1766550 1787144 1798823 1799056 1787377 1764421 
3389.580 1733183 1697689 1663029 1634858 1618229 1616799 1632064 1663129 
3393.437 1706570 1756736 1807374 1852227 1885870 1905038 1908965 1899248 
3397.295 1878915 1851761 1820350 1785614 1746955 1702811 1652752 1598275 
3401.152 1543405 1494727 1458621 1439871 1439804 1456128 1483257 1515009 
3405.010 1546265 1574697 1601068 1627175 1655080 1685282 1715086 1740235 
3408.867 1755904 1758832 1748785 1728492 1703743 1680492 1664360 1658007 
3412.724 1661266 1671444 1683785 1693531 1697223 1692267 1678928 1659470 
3416.582 1637818 1619193 1608750 1611345 1629836 1663861 1710263 1762259 
3420.439 1811632 1849565 1869896 1870196 1852593 1823178 1790738 1763822 
3424.297 1749251 1750049 1765186 1789107 1813928 1831663 1835955 1824110 
3428.154 1797691 1762092 1724367 1691335 1668019 1655745 1652851 1655379 
3432.011 1658439 1658273 1653517 1644803 1634991 1627741 1625180 1628273 
3435.869 1635390 1643106 1647031 1643738 1631033 1610014 1583642 1556673 
3439.726 1534594 1521327 1519664 1530171 1551486 1580416 1613140 1645734 
3443.584 1673806 1694296 1704308 1702146 1688076 1664759 1637352 1613140 
3447.441 1599705 1601966 1621488 1654947 1695693 1735644 1766351 1781588 
3451.299 1778361 1757401 1721839 1677498 1630734 1586635 1549258 1520861 
3455.156 1501310 1488842 1480397 1471853 1459053 1439040 1411348 1377443 
3459.013 1341779 1310737 1290830 1287740 1304323 1340715 1393232 1455097 
3462.871 1518833 1576093 1620025 1646499 1653384 1641643 1614903 1579519 
3466.728 1542674 1511119 1490106 1481794 1484686 1494428 1506198 1515541 
3470.586 1519897 1520429 1520329 1524618 1537221 1560497 1592920 1630368 
3474.443 1666123 1693098 1706870 1705140 1689173 1662896 1631033 1597210 
3478.301 1564188 1532732 1502474 1473249 1446088 1423382 1408822 1405598 
3482.158 1414972 1435117 1461480 1486914 1505067 1511352 1504137 1485451 
3486.015 1459785 1432990 1410119 1394063 1384988 1380634 1378008 1374717 
3489.873 1369665 1363583 1358730 1356868 1359860 1368269 1381498 1398185 
3493.730 1416767 1435948 1454765 1472385 1487945 1499615 1505666 1503937 
3497.588 1492832 1471820 1442364 1407193 1370463 1337192 1312066 1298540 
3501.445 1298507 1311335 1334168 1362552 1392202 1418961 1440170 1453900 
3505.302 1459086 1454831 1440536 1417099 1386218 1352714 1323499 1305652 
3509.160 1305386 1324762 1359860 1402240 1440835 1465869 1470989 1455662 
3513.017 1423715 1384290 1347263 1321904 1314160 1325560 1352813 1389542 
3516.875 1428734 1463275 1488211 1501344 1502574 1493630 1476640 1453501 
3520.732 1426008 1396124 1365643 1337657 1315323 1301232 1296945 1301132 
3524.590 1310704 1320907 1327088 1325094 1312665 1288936 1254542 1211145 
3528.447 1161342 1107923 1055308 1008942 974172 957269 962217 989249 1035645 
3532.787 1094536 1157986 1217691 1267767 1305386 1330545 1345003 1351318 
3536.644 1351318 1346033 1336627 1325726 1316885 1315290 1325194 1348925 
3540.501 1385487 1430230 1476374 1517170 1548260 1568478 1579718 1585538 
3544.359 1588198 1587101 1578920 1558402 1522623 1473416 1416601 1361156 
3548.216 1315024 1282522 1263481 1253910 1247364 1237993 1222144 1199915 
3552.074 1176226 1158850 1154996 1169249 1201178 1246434 1296613 1342876 
3555.931 1376778 1392933 1390373 1372457 1347695 1325427 1314160 1318348 
3559.789 1336228 1360259 1380069 1386651 1375416 1348692 1313795 1281924 
3563.646 1264045 1267103 1293256 1337657 1388811 1430363 1447218 1430596 
3567.503 1383360 1317783 1248760 1188319 1143036 1115929 1107126 1114899 
3571.361 1136027 1165827 1198985 1229952 1255007 1272885 1284649 1293023 
3575.218 1301066 1309873 1318680 1324795 1324729 1316487 1300002 1278069 
3579.076 1255505 1238226 1230716 1235834 1253611 1282190 1317949 1356935 
3582.933 1395226 1429898 1458621 1480364 1494627 1501543 1501144 1494129 
3586.791 1481029 1463541 1444758 1428468 1418396 1416800 1424080 1438641 
3590.648 1457590 1476441 1490205 1494461 1486049 1464938 1433854 1398817 
3594.505 1366375 1342277 1329216 1327421 1335730 1351550 1373188 1398551 
3598.363 1425277 1451174 1474247 1492699 1507495 1519997 1532798 1547196 
3602.220 1563257 1578787 1591191 1598341 1599937 1598408 1598175 1603729 
3606.078 1618694 1642707 1671311 1696292 1709498 1706337 1688442 1661898 
3609.935 1633328 1607919 1587001 1570108 1557338 1550122 1553281 1572635 
3613.792 1611744 1669016 1738306 1809769 1872958 1919083 1941548 1936589 
3617.650 1904206 1848001 1775300 1695294 1617364 1549225 1495791 1459319 
3621.507 1439937 1436613 1446819 1468329 1498983 1537719 1585771 1645800 
3625.365 1721107 1815126 1928135 2055222 2183113 2286458 2332927 2301681 
3629.222 2201695 2068772 1940616 1837319 1761261 1707202 1667952 1638849 
3633.080 1617963 1605059 1600470 1602831 1608119 1611444 1608052 1595581 
3636.937 1574863 1549590 1524652 1504303 1490106 1480630 1472252 1461813 
3640.794 1448747 1435948 1429532 1435749 1458821 1498551 1550156 1605658 
3644.652 1657841 1700150 1730355 1750681 1768447 1792667 1829467 1874555 
3648.509 1911761 1917785 1875154 1786446 1674072 1568478 1491569 1451307 
3652.367 1443428 1457657 1482592 1508559 1529606 1543372 1552250 1561694 
3656.224 1577124 1598275 1619858 1632563 1629071 1606156 1566383 1517403 
3660.082 1470556 1436713 1422385 1428103 1447484 1469526 1482858 1479865 
3663.939 1458887 1424878 1386085 1352514 1332140 1328750 1341945 1367704 
3667.796 1398551 1424911 1438674 1436347 1423416 1413842 1423848 1463043 
3671.654 1532532 1626976 1737707 1852826 1951866 2005322 1977694 1847402 
3675.511 1636754 1411083 1234471 1131376 1095300 1105963 1143402 1191409 
3679.369 1239788 1283652 1322569 1358564 1393431 1427637 1459352 1485584 
3683.226 1503638 1512914 1515408 1515342 1517869 1528110 1549723 1585006 
3687.083 1634492 1696392 1766650 1838151 1901977 1949436 1974832 1976429 
3690.941 1956558 1921246 1876785 1829533 1783718 1740269 1698321 1655945 
3694.798 1611278 1564687 1518367 1476275 1442497 1419194 1405797 1399515 
3698.656 1396988 1395260 1393531 1392733 1394695 1400279 1408656 1415869 
3702.513 1418728 1416169 1410850 1408423 1416002 1439106 1480597 1538551 
3706.371 1607453 1678662 1742431 1790971 1819318 1826206 1812730 1781588 
3710.228 1735478 1676966 1610247 1541909 1480963 1437477 1417631 1423382 
3714.085 1452338 1499182 1556972 1618229 1676301 1724933 1759830 1778960 
3717.943 1783385 1776764 1764721 1753176 1746523 1746822 1753642 1763889 
3721.800 1773271 1776797 1771208 1754041 1724866 1683785 1632031 1572535 
3725.658 1510620 1454765 1414174 1397121 1407060 1443295 1500945 1573100 
3729.515 1652818 1732750 1805577 1866536 1912427 1943844 1964314 1978293 
3733.373 1986914 1988112 1975131 1942413 1890196 1827870 1769977 1729357 
3737.230 1709198 1706005 1712292 1721340 1728459 1732983 1736975 1744593 
3741.087 1759963 1784915 1816889 1848500 1866436 1853724 1800619 1715884 
3744.945 1628971 1569609 1552916 1578720 1640412 1729191 1835722 1950567 
3748.802 2059351 2145784 2193570 2191838 2139557 2046001 1927270 1800586 
3752.660 1680592 1576226 1491868 1429466 1389310 1371925 1378241 1407991 
3756.517 1458821 1524253 1593652 1654481 1694362 1706337 1691868 1660136 
3760.375 1624415 1597077 1585405 1588897 1602432 1617530 1625679 1619459 
3764.232 1595780 1558170 1517337 1486548 1477937 1496822 1541111 1602432 
3768.089 1667852 1721806 1747887 1735245 1683119 1603163 1513712 1432624 
3771.947 1372358 1337292 1326391 1334035 1353246 1376512 1398251 1416235 
3775.804 1430829 1444824 1461115 1481195 1504236 1526214 1541710 1547163 
3779.662 1542574 1532067 1521792 1517403 1521293 1532998 1549690 1567115 
3783.519 1581115 1587699 1585105 1573499 1555110 1532565 1508725 1485950 
3787.376 1466135 1450775 1440137 1433821 1430396 1428036 1424911 1421354 
3791.234 1418496 1419559 1428036 1446121 1474180 1510088 1549590 1586402 
3795.091 1614803 1630867 1634293 1629936 1625446 1628738 1644104 1671877 
3798.949 1707934 1744859 1770077 1769312 1731453 1658373 1569808 1492633 
3802.806 1447351 1440137 1466866 1518434 1584374 1652319 1708333 1740235 
3806.664 1741533 1715419 1673573 1628772 1588497 1554013 1523255 1494661 
3810.521 1468994 1450443 1445024 1458621 1493996 1549757 1619293 1691302 
3814.378 1751812 1784682 1779625 1737641 1674937 1612608 1566516 1542740 
3818.236 1539182 1549424 1566117 1581614 1588564 1582312 1564222 1541144 
3822.093 1520994 1508027 1502973 1504103 1509157 1516239 1524519 1534161 
3825.951 1546398 1562958 1584773 1611245 1639614 1665491 1683984 1690703 
3829.808 1682621 1660069 1626776 1590460 1559998 1542973 1542308 1556174 
3833.666 1579020 1604327 1626676 1643007 1653184 1659304 1665092 1673673 
3837.523 1685980 1701048 1715519 1727295 1735112 1739537 1741699 1741799 
3841.380 1738139 1727794 1707369 1674671 1630601 1579153 1527145 1482126 
3845.238 1448947 1430496 1426806 1436879 1459718 1495592 1545401 1610280 
3849.095 1691335 1787477 1895188 2009583 2121910 2220478 2291288 2319369 
3852.953 2298416 2238296 2161401 2085485 2015708 1948870 1882143 1816257 
3856.810 1756037 1708034 1678396 1670247 1682288 1709564 1744760 1780890 
3860.667 1811632 1832894 1843342 1842876 1832095 1811898 1784549 1754507 
3864.525 1729956 1719577 1729557 1760429 1807074 1860479 1909132 1940915 
3868.382 1943545 1909332 1841013 1756270 1681523 1634725 1619725 1628805 
3872.240 1649925 1671644 1685947 1689173 1682820 1672010 1663362 1660934 
3876.097 1666355 1678463 1694961 1712990 1729124 1740002 1742032 1732784 
3879.955 1713157 1687277 1662530 1645268 1639614 1645667 1661400 1682754 
3883.812 1705240 1724134 1735312 1736343 1728259 1714720 1698886 1682421 
3887.669 1664326 1642441 1614304 1578720 1536157 1490305 1447417 1414340 
3891.527 1395825 1392335 1400711 1417299 1439804 1468262 1504403 1549657 
3895.384 1603562 1663329 1723103 1775001 1810534 1823910 1813762 1784915 
3899.242 1747022 1711793 1686878 1674072 1668617 1663761 1652818 1632796 
3903.099 1605358 1575595 1549158 1529872 1518301 1512416 1510155 1509988 
3906.957 1511717 1515874 1522091 1529872 1537187 1542042 1543705 1542807 
3910.814 1541809 1543538 1550621 1563224 1579286 1595149 1606855 1612043 
3914.671 1610147 1603363 1595448 1589562 1587167 1586868 1584607 1577124 
3918.529 1562958 1544203 1525882 1514411 1514710 1529141 1556241 1591324 
3922.386 1627375 1656377 1671511 1667752 1644869 1607487 1564055 1523687 
3926.244 1493796 1479101 1481029 1498085 1527744 1565851 1607221 1646233 
3930.101 1677698 1696857 1701148 1690471 1667752 1639182 1611777 1592621 
3933.958 1585804 1592455 1610447 1635822 1663462 1688608 1708333 1721806 
3937.816 1729690 1734181 1737275 1739603 1740535 1738738 1732384 1721407 
3941.673 1707103 1693231 1684084 1683286 1691901 1708167 1728459 1748319 
3945.531 1763523 1770909 1768081 1754274 1730289 1698188 1661699 1625013 
3949.388 1592654 1568345 1554212 1551851 1560763 1579386 1604793 1633993 
3953.246 1662896 1688674 1709597 1725132 1737075 1747587 1758899 1771641 
3957.103 1784250 1792435 1791669 1777662 1749118 1708566 1662597 1619759 
3960.960 1588464 1574397 1578521 1597210 1623716 1650457 1672110 1686413 
3964.818 1693498 1695327 1694994 1694063 1694728 1698288 1706471 1720575 
3968.675 1741433 1767815 1796427 1821914 1838517 1841645 1830299 1807008 
3972.533 1777796 1749517 1728293 1717049 1715552 1721074 1729923 1739670 
3976.390 1749783 1760728 1773504 1787444 1800353 1808139 1807606 1797159 
3980.248 1778195 1755671 1736144 1725864 1728226 1742830 1764987 1788475 
3984.105 1806775 1815326 1813030 1802017 1786778 1772273 1762724 1760662 
3987.962 1765652 1775966 1787943 1798091 1803081 1801418 1793699 1782620 
3991.820 1772805 1769478 1777230 1798224 1831264 1871228 1910197 1938586 
3995.677 1948204 1934658 1898715 1845671 1784350 1724800 1674804 1639514 
3999.535 1620124 1615136 1621821 
##END=
