##TITLE=la_0 31 12:33:31 2026 (GMT+02:00)
##JCAMP-DX=5.01  $$ Nicolet v. 970
##DATATYPE=INFRARED SPECTRUM
##ORIGIN=Vojna akademija
##OWNER=Nicolet
##LONGDATE=2026/08/31
##TIME=12:34:10
##SPECTROMETER/DATA SYSTEM=Nicolet iS20
##DATA PROCESSING=
Ratio against background
%Transmittance->Absorbance
Truncated
ElementMultiply or ElementDivide
##COMMENTS=
Number of sample scans: 8
Collection length: 11,90 sec
Sample gain: 8,0
Background collected on: Mon Aug 31 12:32:58 2026 (GMT+02:00);
Number of background scans: 8
Background gain: 8,0
Sample spacing:  1,000
Number of scan points: 12415
Resolution points: 8286
Number of FFT points: 65536
Apodization: N-B strong;
Phase correction: Mertz;
Laser frequency: 15798,00 cm-1
Number of rejected sample scans: 0
Number of rejected background scans: 0
Bench serial number: BER2010005;
##RESOLUTION= 4,000
##XUNITS=1/CM
##YUNITS=ABSORBANCE
##FIRSTX=400.156891
##LASTX=4000.123047
##FIRSTY=0.017146
##MAXX=4000.123047
##MINX=400.156891
##MAXY=0.272158
##MINY=-0.006580
##XFACTOR=1.000000
##YFACTOR=1.000000E-009
##NPOINTS=7468
##DELTAX=0.482117
##ZPD=6100
##XYDATA=(X++(Y..Y))
400.157 17146240 9445678 3667141 -121750 -2096260 -2618855 -2113406 -998769 
404.014 385685 1789873 3008029 3887302 4317784 4237709 3656482 2649678 
407.871 1355007 -58245 -1403738 -2528966 -3357646 -3900269 -4235709 -4454053 
411.728 -4622625 -4760587 -4857060 -4904960 -4930875 -4998322 -5181056 
415.103 -5517537 -5970740 -6402870 -6579956 -6161330 -4808663 -2379682 
418.477 786253 3867510 6003509 6855918 6676473 5953120 5106872 4361559 
422.334 3780667 3294323 2767873 2064111 1131210 41452 -1017876 -1827534 
426.191 -2203249 -2053754 -1411434 -422319 689602 1700683 2437141 2851812 
430.048 3035322 3196479 3570583 4316312 5431759 6734317 7907590 8601357 
433.905 8572665 7741337 6254269 4445539 2782612 1675868 1327886 1692633 
437.762 2537814 3582743 4595667 5467392 6185634 6786884 7292623 7664810 
441.619 7801819 7594906 6996476 6086498 5061245 4174309 3618725 3464426 
445.476 3644553 3998276 4328828 4482363 4414844 4198665 3987576 3936884 
449.333 4158586 4677114 5431558 6280221 7040152 7520057 7576226 7175447 
453.190 6414607 5501954 4676712 4172971 4150825 4662009 5622941 6810006 
457.047 7895645 8532147 8536202 7969884 7106194 6249395 5619988 5285904 
460.904 5185262 5174264 5094132 4836166 4370127 3749985 3073929 2440073 
464.761 1908899 1513081 1278601 1246434 1484819 2065643 3021876 4312898 
468.617 5810850 7332250 8659762 9612043 10070452 10009009 9502571 8721724 
472.474 7889268 7195323 6752590 6559935 6532587 6542376 6466968 6214943 
476.331 5734394 5026953 4146711 3196445 2291788 1541710 1020201 754620 
480.188 731419 904971 1209983 1567214 1900945 2152577 2286358 2302647 
484.045 2234832 2143253 2091578 2125972 2252618 2437774 2615109 2718157 
487.902 2708654 2593775 2432809 2319269 2355879 2602975 3056711 3635298 
491.759 4212449 4652162 4870578 4872689 4751173 4647942 4690544 4957271 
495.616 5436121 6027699 6559834 6853191 6764571 6239681 5324677 4156813 
499.473 2930297 1846171 1099220 817124 1026146 1631200 2448770 3262006 
503.330 3886432 4227036 4268928 4058273 3664769 3164903 2626909 2107060 
507.187 1662697 1348825 1214468 1295782 1603064 2115284 2777977 3516766 
511.044 4241959 4866289 5328367 5591491 5648150 5507792 5187609 4704813 
514.901 4080815 3353755 2580609 1844806 1247796 880136 808029 1048698 
518.758 1562127 2251918 2984575 3623069 4047570 4195687 4074260 3761716 
522.615 3383507 3089780 3016404 3237603 3745440 4441355 5171246 5764914 
526.471 6107432 6174140 6023398 5754371 5462929 5215073 5034931 4921378 
530.328 4864613 4857443 4894201 4959651 5019378 5013579 4879022 4577718 
534.185 4128781 3624639 3219811 3093751 3375559 4106737 5212357 6529964 
538.042 7837781 8925793 9653712 9961204 9873675 9469315 8850038 8105267 
541.899 7304787 6497338 5709818 4958008 4250324 3593901 3004793 2514118 
545.756 2168294 2023497 2121444 2465297 3000189 3618893 4176350 4525518 
549.613 4574537 4311794 3825022 3264410 2807289 2588609 2663412 3001890 
553.470 3508950 4064260 4560842 4944904 5217186 5418641 5597298 5787076 
557.327 5991483 6188860 6345610 6435457 6449447 6395273 6290541 6152429 
561.184 5993902 5823678 5652379 5499470 5394150 5373786 5471452 5702768 
565.041 6055048 6481127 6905942 7233458 7376667 7276315 6920553 6351998 
568.898 5665908 4986027 4422308 4054059 3903115 3938422 4088943 4274483 
572.755 4428233 4509916 4513566 4456084 4365207 4263641 4164675 4072755 
576.612 3990619 3927388 3900307 3928993 4029344 4202546 4430911 4676712 
580.469 4894369 5041400 5091886 5044786 4921915 4760820 4601594 4482932 
584.326 4430978 4454042 4540116 4660770 4777068 4848631 4848195 4765376 
588.182 4612344 4416249 4214925 4042454 3920166 3853603 3831474 3833981 
592.039 3836856 3821747 3779898 3713423 3633226 3559091 3515697 3525184 
595.896 3602789 3745874 3930264 4109915 4230884 4248483 4143800 3937753 
599.753 3690231 3487506 3404979 3488508 3734177 4095867 4499136 4868668 
603.610 5151162 5319813 5376504 5337021 5218896 5031143 4777771 4467031 
607.467 4120151 3777157 3489410 3302269 3244614 3317560 3497259 3742866 
611.324 4014094 4280740 4525150 4740956 4921781 5053904 5116192 5083203 
615.181 4935621 4671822 4312563 3898602 3480558 3110804 2827999 2653445 
619.038 2589309 2620575 2720357 2854114 2989312 3096721 3157928 3167740 
622.895 3132997 3068390 2990980 2916220 2853613 2808857 2785913 2789715 
626.752 2824898 2893138 2988912 3096921 3193641 3255997 3266380 3222448 
630.609 3139471 3047635 2982006 2975033 3050671 3219511 3480492 3819975 
634.466 4212716 4616998 4977883 5235194 5328535 5220204 4906399 4424986 
638.323 3847152 3262140 2754168 2373536 2132199 2004257 1945608 1911761 
642.180 1877517 1842643 1825241 1846570 1919782 2042239 2198731 2369605 
646.036 2540313 2706787 2873892 3049336 3237103 3435136 3636935 3836120 
649.893 4029778 4217835 4399547 4567874 4710072 4809799 4856639 4852819 
653.750 4815528 4770904 4741491 4736969 4746784 4745478 4701196 4592017 
657.607 4413639 4181034 3919364 3654544 3403209 3170811 2955517 2756935 
661.464 2582009 2445504 2362576 2338756 2363742 2413784 2459999 2479760 
665.321 2467930 2439906 2433842 2501821 2693918 3014068 3387581 3682746 
669.178 3808810 3759410 3582743 3335023 3062116 2797885 2564910 2382932 
673.035 2267373 2227938 2267106 2378267 2546279 2744998 2943407 3108067 
676.892 3208729 3227322 3159630 3016904 2822763 2612475 2428044 2309209 
680.749 2290988 2392094 2611075 2924993 3294623 3669848 3998377 4241725 
684.606 4379565 4415647 4372336 4284655 4190200 4120552 4100850 4143533 
688.463 4250324 4411597 4611607 4830270 5048875 5255450 5446522 5628446 
692.320 5813469 6015201 6240622 6486407 6738423 6977452 7187473 7362950 
696.177 7512202 7655300 7816156 8009640 8236572 8480449 8713002 8902186 
700.034 9023685 9067699 9039754 8957350 8843478 8723144 8616972 8540730 
703.890 8505824 8519712 8588650 8719358 8918386 9192291 9544874 9974663 
707.747 10473166 11024849 11609665 12205936 12797327 13376574 13946947 
711.122 14521152 15115123 15740279 16395995 17069486 17741330 18396482 
714.497 19035106 19679456 20370978 21159818 22084574 23159390 24363580 
717.872 25646472 26931968 28138584 29199446 30066532 30718898 31158640 
721.247 31404838 31486164 31437714 31295716 31088622 30834386 30535932 
724.621 30182200 29755050 29240344 28637508 27964652 27254484 26544102 
727.996 25867164 25242160 24671988 24148066 23658152 23193852 22754556 
731.371 22347726 21983902 21670568 21406888 21181944 20977602 20773388 
734.746 20551204 20302506 20029764 19747692 19477482 19244426 19069450 
738.121 18961790 18916968 18916382 18932474 18934448 18898904 18815196 
741.496 18688022 18534534 18377816 18238502 18126592 18039130 17959730 
744.870 17866122 17733322 17544118 17294962 16998568 16682234 16384607 
748.245 16148012 16002674 15959429 15999099 16077142 16128136 16087044 
751.620 15908008 15577183 15120201 14594716 14077874 13637408 13318625 
754.995 13133656 13063344 13065530 13089910 13095818 13055320 12960543 
758.370 12820225 12655630 12493244 12360168 12280948 12271303 12336408 
761.744 12469544 12654163 12865480 13076286 13262904 13407158 13499913 
765.119 13539598 13530676 13480739 13399161 13297306 13185979 13075534 
768.494 12972287 12876846 12782654 12678043 12552993 12402715 12233233 
771.869 12061127 11910405 11801919 11748265 11747481 11783431 11828952 
775.244 11853639 11831813 11746868 11596257 11389535 11149289 10906152 
778.619 10694462 10548865 10495060 10544248 10689164 10906119 11156735 
781.993 11396338 11585503 11690872 11692710 11584073 11368787 11059007 
785.368 10674425 10244451 9804872 9397834 9064891 8835125 8721488 8716146 
789.225 8795563 8925522 9073282 9213138 9327108 9404504 9436130 9411242 
793.082 9320405 9159464 8937055 8677171 8418386 8203650 8066986 8028237 
796.939 8086801 8228062 8429805 8672506 8943922 9237168 9547210 9863913 
800.796 10169722 10442551 10661487 10815410 10907171 10954605 10983184 
804.171 11016081 11069815 11147012 11239591 11331952 11408074 11455426 
807.546 11468524 11450017 11410217 11365215 11332157 11327838 11361849 
810.920 11433654 11533100 11644958 11752996 11847782 11929000 12003761 
814.295 12081158 12162930 12240254 12293458 12299764 12241958 12118056 
817.670 11942623 11741864 11540756 11353652 11178731 11002385 10807869 
821.045 10589164 10356962 10138144 9965543 9862625 9834833 9864422 9915878 
824.902 9945574 9917743 9811650 9625425 9372304 9076497 8766452 8470111 
828.759 8215535 8027528 7924191 7915418 7997592 8153138 8352717 8563033 
832.616 8752726 8899987 8998008 9051561 9072977 9074330 9062726 9038164 
836.473 8994559 8924406 8822377 8689306 8533363 8368695 8213780 8088590 
840.329 8008223 7982370 8010821 8085249 8189907 8308707 8427575 8537993 
844.186 8637690 8726930 8804760 8866337 8901441 8898330 8849903 8758135 
848.043 8636812 8508358 8399198 8329985 8311038 8341166 8410650 8506838 
851.900 8617783 8735991 8856125 8973214 9080015 9165861 9220618 9237000 
855.757 9214188 9157975 9079406 8991716 8907191 8836072 8786975 8766588 
859.614 8778996 8823256 8892073 8970136 9039924 9086004 9102819 9097474 
863.471 9088270 9097778 9140312 9215677 9305476 9381446 9413240 9383545 
867.328 9294203 9166334 9030586 8914936 8836478 8797626 8788531 8796172 
871.185 8811387 8832149 8860927 8900664 8948691 8995404 9027846 9033767 
875.042 9008631 8956301 8886629 8809663 8731461 8652123 8568035 8476969 
878.899 8382105 8292632 8221748 8181567 8177380 8207634 8265446 8343057 
882.756 8435717 8544380 8674094 8829951 9013197 9218554 9434504 9647139 
886.613 9841950 10008297 10139366 10230136 10276614 10274782 10221621 
889.987 10117557 9968289 9785486 9584909 9385678 9207419 9066516 8975920 
893.844 8941215 8958973 9014687 9086410 9147587 9172629 9145794 9062896 
897.701 8933741 8775041 8606393 8441021 8283986 8134705 7992596 7862782 
901.558 7759855 7702684 7709126 7785761 7923483 8098144 8276657 8430548 
905.415 8541203 8607441 8640530 8658478 8674771 8693396 8707594 8705836 
909.272 8677035 8617986 8534444 8439163 8346874 8268553 8209964 8170526 
913.129 8146318 8132713 8126569 8127919 8139060 8164179 8207769 8273111 
916.986 8360081 8463691 8573037 8673452 8747959 8783763 8775852 8730244 
920.843 8661824 8590272 8533431 8501262 8494640 8508561 8537453 8580066 
924.700 8641138 8727944 8844458 8984106 9128062 9246713 9310520 9299316 
928.557 9210804 9062523 8888895 8732036 8626875 8599127 8657092 8793298 
932.414 8987861 9213782 9441141 9639483 9783488 9855779 9851101 9779658 
936.271 9666553 9547448 9457226 9424210 9459630 9555779 9687491 9820529 
940.128 9921268 9962899 9934896 9842458 9705720 9552866 9416625 9326058 
943.985 9298807 9339566 9437246 9568651 9702636 9809921 9868048 9866693 
947.841 9809142 9709989 9591176 9475106 9383612 9333709 9334589 9387168 
951.698 9481032 9595918 9702534 9772033 9783318 9731708 9632031 9517744 
955.555 9430034 9400339 9442055 9543349 9672244 9787622 9857235 9869100 
959.412 9834900 9783284 9747974 9753971 9808294 9900114 10006873 10106535 
963.269 10182848 10230577 10252458 10254120 10238889 10207238 10158868 
966.644 10096598 10028438 9967035 9924794 9909030 9919505 9948761 9985614 
970.501 10020537 10048885 10068960 10079472 10074013 10039289 9959644 
973.876 9822665 9628744 9394684 9153847 8947067 8808210 8755261 8781802 
977.733 8859608 8944429 8994457 8979844 8892073 8743868 8564994 8392137 
981.590 8255449 8175017 8154252 8182951 8240456 8304081 8353562 8374504 
985.447 8361703 8316746 8246871 8161039 8067999 7974035 7882621 7794734 
989.304 7710576 7629435 7551850 7479199 7414583 7362613 7328307 7316648 
993.160 7329723 7365242 7414145 7461738 7489953 7481289 7426076 7326926 
997.017 7201959 7081406 7000382 6990887 7069417 7231808 7450850 7685484 
1000.874 7886231 8011226 8037857 7966880 7821656 7640732 7468851 7342158 
1004.731 7280796 7285749 7341551 7423043 7505392 7573967 7625422 7667946 
1008.588 7713713 7772066 7841998 7910728 7955541 7953617 7889166 7760698 
1012.445 7582498 7381790 7190808 7035841 6934928 6893082 6906346 6964422 
1016.302 7056518 7173897 7310380 7462513 7627749 7804450 7991212 8187205 
1020.159 8390279 8595848 8793129 8964892 9088608 9139703 9100586 8966246 
1024.016 8748939 8476767 8189332 7930164 7735535 7630885 7626232 7714792 
1027.873 7875502 8076235 8281824 8454332 8564013 8592435 8536337 8408859 
1031.731 8237923 8060303 7910390 7816730 7794262 7843753 7953314 8103410 
1035.588 8270140 8428014 8554754 8631133 8644552 8591894 8482307 8337890 
1039.446 8187880 8064759 7992799 7981594 8022465 8091426 8158068 8192911 
1043.303 8179947 8119817 8029789 7935597 7865413 7840447 7869226 7947003 
1047.161 8056860 8177076 8282365 8352988 8375180 8343901 8263014 8144192 
1051.018 8004375 7861803 7733579 7632065 7563987 7530070 7526833 7548377 
1054.875 7588499 7643969 7714084 7801886 7911774 8047983 8211381 8397238 
1058.733 8593212 8780348 8936852 9039450 9071083 9023888 8901543 8718175 
1062.590 8495519 8259062 8031613 7833496 7680492 7584015 7550265 7579126 
1066.448 7662416 7781342 7908906 8014466 8067392 8047409 7947779 7778475 
1070.305 7562166 7330195 7115793 6945466 6840199 6811857 6863930 6991830 
1074.162 7184239 7423851 7687305 7951694 8195580 8404840 8575267 8711075 
1078.020 8820551 8908713 8972368 8998144 8967159 8862111 8678556 8430176 
1081.877 8150741 7883768 7673714 7552861 7530239 7590152 7695331 7801144 
1085.735 7863928 7856979 7775743 7638540 7479638 7340035 7258862 7260311 
1089.592 7351897 7522721 7749364 7998908 8236302 8431088 8557796 8601594 
1093.450 8558877 8437913 8258084 8048827 7847194 7687507 7597738 7590219 
1097.307 7657998 7776721 7911470 8028136 8099731 8115225 8079138 8007481 
1101.164 7918117 7824759 7732196 7638068 7535633 7421223 7296229 7168676 
1105.022 7048941 6945062 6859318 6786110 6714732 6632532 6529728 6402536 
1108.879 6254673 6094932 5937063 5796041 5685143 5616329 5596828 5628816 
1112.737 5709080 5829185 5977608 6140600 6306409 6466027 6615340 6754744 
1116.594 6887696 7017623 7146141 7270082 7382396 7473334 7532363 7552355 
1120.452 7532565 7480109 7408785 7338080 7288546 7274596 7302900 7369084 
1124.309 7460558 7559334 7648791 7717895 7761677 7780330 7776215 7749938 
1128.166 7700762 7628862 7539948 7448322 7378520 7358569 7410100 7540993 
1132.024 7738166 7970288 8193553 8368695 8470009 8493897 8458015 8393252 
1135.881 8331168 8291449 8278075 8280000 8279258 8258894 8211652 8141997 
1139.739 8064624 7998334 7961683 7968534 8024963 8130012 8275239 8447204 
1143.596 8627246 8796037 8936852 9038705 9100789 9132326 9150192 9170936 
1147.453 9206099 9257071 9316004 9369528 9406941 9425801 9434843 9450182 
1151.311 9488110 9558523 9658726 9773795 9880827 9958593 9993141 9982529 
1155.168 9935540 9867947 9796094 9732318 9683662 9651645 9634706 9630303 
1159.026 9635757 9649071 9668043 9689489 9710057 9726388 9735774 9736012 
1162.883 9725406 9701924 9663233 9608758 9540301 9464337 9390791 9331915 
1166.741 9298570 9296133 9322538 9367497 9416388 9452417 9462204 9439075 
1170.598 9382834 9298299 9192934 9074432 8948285 8818692 8688325 8559790 
1174.455 8435920 8319921 8214792 8123126 8047308 7989154 7950851 7934045 
1178.313 7939208 7963910 8002553 8046025 8083797 8108102 8115698 8110635 
1182.170 8101891 8101115 8116981 8151451 8197807 8242246 8268282 8260987 
1186.028 8213712 8129067 8019664 7902967 7798614 7722752 7684371 7685517 
1189.885 7721808 7784176 7860656 7939275 8009337 8063071 8097570 8114213 
1193.743 8118669 8117622 8117419 8120560 8124813 8124375 8112289 8084607 
1197.600 8042278 7992191 7945384 7913360 7903642 7918219 7953854 8003734 
1201.457 8061114 8122349 8187105 8257037 8333532 8414366 8493593 8563203 
1205.315 8614099 8640530 8640901 8617681 8576280 8522348 8460617 8394840 
1209.172 8327757 8263351 8206486 8163064 8137744 8133152 8149154 8182647 
1213.030 8229211 8284560 8343801 8402306 8453589 8490214 8504135 8489031 
1216.887 8443588 8372883 8289052 8207904 8145576 8113976 8117656 8153982 
1220.745 8214860 8291314 8374437 8458116 8539142 8614572 8681598 8736633 
1224.602 8775885 8797558 8801987 8792892 8775344 8754821 8735180 8719256 
1228.459 8708507 8704517 8709758 8727471 8759825 8806553 8863936 8925015 
1232.317 8980487 9021689 9043273 9044491 9028793 9003320 8976360 8954746 
1236.174 8942704 8941385 8948623 8959447 8968343 8970440 8963371 8948285 
1240.032 8929580 8914124 8908544 8916695 8937428 8965773 8993544 9013130 
1243.889 9021452 9020877 9019727 9028354 9055892 9106609 9178551 9264145 
1247.746 9354428 9441107 9519539 9588297 9648156 9699010 9738349 9760952 
1251.604 9761494 9737164 9689964 9628032 9563096 9508837 9475783 9469484 
1255.461 9489566 9531122 9585418 9643481 9697655 9743297 9777862 9802025 
1259.319 9818598 9831748 9845949 9865100 9891301 9924116 9961407 9999956 
1263.176 10037390 10073267 10109249 10149574 10199097 10261788 10340368 
1266.551 10434031 10539631 10650723 10758650 10854104 10927558 10972955 
1269.927 10987908 10976558 10947674 10914681 10890659 10884544 10898304 
1273.302 10926947 10960926 10988995 11003846 11003302 10990797 10972412 
1276.677 10953416 10935442 10916074 10890489 10855360 10812047 10768399 
1280.052 10736472 10728593 10753387 10812387 10898882 11001161 11107001 
1283.428 11206814 11296822 11378617 11456720 11535482 11616029 11694923 
1286.803 11766137 11822484 11858746 11873218 11868656 11850948 11827863 
1290.178 11808251 11800761 11813461 11853094 11924095 12026685 12156149 
1293.553 12301912 12448881 12579733 12679578 12740069 12762249 12756515 
1296.929 12741229 12737442 12762009 12824116 12922072 13044735 13174810 
1300.304 13295017 13393626 13466896 13519533 13562194 13606739 13661479 
1303.679 13727545 13799469 13867095 13918480 13945475 13944619 13918480 
1307.054 13873834 13818691 13760615 13704017 13650640 13600210 13551801 
1310.430 13504835 13460095 13418265 13380572 13346642 13315106 13282343 
1313.805 13244491 13198139 13141067 13074032 12999735 12922925 12848551 
1317.180 12780538 12720656 12666956 12615104 12559917 12496927 12424468 
1320.555 12343771 12258761 12174891 12097852 12033124 11985572 11959244 
1323.931 11957370 11981042 12028900 12095808 12174107 12255079 12330715 
1327.306 12396510 12452427 12503270 12556847 12622609 12709158 12821727 
1330.681 12961977 13127236 13311997 13507023 13702068 13886082 14049091 
1334.056 14184877 14291563 14373308 14440064 14506659 14588959 14699549 
1337.432 14844076 15018662 15210029 15397635 15561729 15690122 15782678 
1340.807 15849445 15905809 15965307 16035093 16116444 16205654 16297013 
1344.182 16384779 16466368 16543187 16619917 16703134 16799144 16912126 
1347.557 17042262 17186158 17336548 17485506 17624510 17747854 17853108 
1350.932 17940946 18015298 18080716 18142690 18205192 18271642 18345222 
1354.308 18429046 18528204 18648936 18797930 18981242 19202796 19462858 
1357.683 19758510 20085388 20440122 20823650 21245616 21726752 22299274 
1361.058 22999948 23861416 24892956 26067206 27318274 28562800 29729076 
1364.433 30771642 31674378 32436658 33063206 33562636 33952092 34266708 
1367.809 34561028 34911412 35395216 36069396 36965616 38088148 39430508 
1371.184 40992108 42792200 44866144 47244512 49918936 52795704 55680844 
1374.559 58330424 60516472 62104836 63056984 63380800 63088940 62180536 
1377.934 60658792 58565412 56008364 53157940 50192184 47267488 44480360 
1381.310 41866336 39428800 37158676 35048208 33091630 31274424 29565288 
1384.685 27916348 26273644 24593226 22863542 21119814 19437456 17900476 
1388.060 16563805 15436086 14491175 13691740 13003491 12403090 11873593 
1391.435 11400692 10968775 10563904 10177591 9811955 9481641 9207588 9003962 
1395.293 8867251 8776696 8706985 8638975 8568102 8501127 8449602 8421460 
1399.150 8415041 8420750 8428217 8432676 8436730 8446562 8466630 8495958 
1403.008 8528667 8555768 8572124 8582432 8600343 8640462 8709791 8801143 
1406.865 8897620 8979133 9033259 9058768 9066380 9072335 9091146 9128976 
1410.723 9181732 9239436 9293797 9344610 9399898 9470162 9561707 9672312 
1414.580 9792231 9909878 10018503 10120779 10229864 10363104 10532265 
1417.955 10733551 10943291 11130694 11279003 11399434 11518742 11663166 
1421.330 11843730 12058367 12297207 12551867 12820430 13111048 13436547 
1424.706 13806857 14221783 14672028 15148678 15651545 16194612 16804966 
1428.081 17514278 18346120 19303276 20363028 21486570 22636484 23790816 
1431.456 24944330 26100702 27263410 28429946 29598630 30778258 31993374 
1434.831 33291884 34733708 36361228 38146388 39976296 41705164 43239912 
1438.207 44582272 45800456 46979940 48198884 49508700 50931588 52458256 
1441.582 54059660 55697192 57333588 58945092 60518604 62048644 63536720 
1444.957 64988656 66419600 67854104 69324392 70857536 72461304 74117264 
1448.332 75786672 77435472 79058232 80679936 82345368 84096024 85949344 
1451.708 87882360 89836080 91741376 93534056 95186368 96705088 98114240 
1455.083 99434360 100657152 101727984 102552328 103067768 103312416 
1457.976 103391064 103395688 103347384 103227264 103011816 102697200 
1460.869 102294736 101819928 101274544 100636136 99850480 98842584 97537072 
1464.244 95897624 93953320 91773832 89416096 86887904 84144968 81145920 
1467.620 77886640 74420616 70825944 67191392 63572584 59945752 56223356 
1470.995 52276892 48027388 43562284 39201476 35362936 32299400 29988558 
1474.370 28220572 26751436 25417778 24144914 22933188 21814682 20816420 
1477.745 19937476 19151302 18423724 17727318 17049636 16393689 15769931 
1481.120 15189269 14655406 14165706 13715062 13302397 12931561 12608453 
1484.496 12336408 12110527 11918510 11744008 11572742 11398073 11221740 
1487.871 11048810 10877681 10696193 10484232 10229864 9944727 9660251 
1491.246 9409210 9208366 9055621 8935432 8827314 8713205 8581823 8430920 
1495.104 8268046 8105840 7956317 7822128 7696411 7568572 7434368 7299969 
1498.961 7176323 7071606 6985937 6911631 6839054 6761138 6678560 6598721 
1502.818 6532587 6490645 6477427 6489771 6513550 6525154 6491015 6384949 
1506.676 6214337 6031428 5886076 5784255 5701022 5615624 5520376 5419748 
1510.533 5323369 5242069 5181171 5139762 5111465 5088600 5066005 5042071 
1514.391 5017802 4992664 4963605 4922853 4861933 4778642 4681635 4586056 
1518.248 4505430 4444870 4401790 4367014 4328560 4275988 4208467 4136407 
1522.106 4073390 4023123 3976808 3919999 3840967 3735246 3609571 3481460 
1525.963 3376928 3317460 3311517 3350616 3416434 3488374 3551908 3600383 
1529.820 3631656 3647293 3648663 3635431 3605862 3557287 3489677 3408085 
1533.678 3323303 3246583 3183294 3133631 3096254 3071193 3062116 3075497 
1537.535 3119581 3200885 3319864 3462723 3598312 3692537 3733575 3740727 
1541.393 3740159 3745005 3749885 3740995 3702696 3626310 3513960 3378665 
1545.250 3239740 3115109 3015970 2945709 2904479 2891437 2905213 2942673 
1549.108 2995585 3050671 3091682 3107834 3097622 3067622 3027581 2987077 
1552.965 2953682 2931665 2922291 2924760 2937603 2960254 2993816 3040060 
1556.822 3100926 3176285 3261071 3338462 3383574 3383774 3353621 3311450 
1560.680 3262641 3203889 3132296 3047334 2952948 2856749 2770073 2703687 
1564.537 2664213 2651478 2658612 2677381 2702620 2735595 2781811 2847543 
1568.395 2935735 3038892 3140673 3223383 3280401 3319096 3353454 3395362 
1572.252 3449263 3513059 3579536 3639207 3681042 3694643 3672922 3615852 
1576.109 3531932 3436004 3342035 3256865 3181926 3116944 3062383 3020675 
1579.967 2994750 2987277 2999622 3031452 3080503 3143376 3215705 3292787 
1583.824 3368714 3437541 3493919 3535139 3561629 3577297 3587287 3596641 
1587.682 3609003 3625809 3647260 3672421 3700190 3729431 3757705 3782204 
1591.539 3799251 3806003 3801992 3790861 3779631 3776923 3790527 3823986 
1595.397 3874865 3935714 3996671 4048407 4084762 4103794 4106972 4098743 
1599.254 4085097 4074026 4074494 4094897 4141392 4215761 4313702 4424517 
1603.111 4534123 4627815 4695200 4732380 4741726 4729466 4702402 4666296 
1606.969 4624433 4578556 4529268 4476237 4418392 4352522 4274783 4181770 
1610.826 4073290 3954137 3835017 3729231 3648095 3598746 3582375 3593467 
1614.684 3619227 3641813 3641412 3603323 3529126 3438041 3355925 3299231 
1618.541 3272389 3270052 3283673 3302937 3316158 3310582 3270586 3182193 
1622.399 3040961 2861151 2675781 2524416 2435541 2415583 2454968 2534781 
1626.256 2634409 2731994 2810024 2856715 2869723 2854114 2819662 2775842 
1630.113 2728793 2680815 2632343 2582609 2530315 2473928 2411651 2342288 
1633.971 2267339 2193736 2136893 2115284 2137526 2191671 2253583 2302813 
1637.828 2331794 2343853 2347618 2352781 2366307 2390428 2421580 2452035 
1641.686 2472595 2477360 2465831 2442739 2416083 2395159 2387696 2396558 
1645.543 2418348 2441739 2450936 2433009 2387229 2322600 2249520 2173322 
1649.401 2095407 2015475 1932928 1850629 1776431 1725864 1725066 1796560 
1653.258 1924208 2050062 2133364 2174788 2193503 2204759 2216815 2232368 
1657.115 2251385 2272069 2292121 2309475 2321001 2324066 2315105 2290922 
1660.973 2249920 2193336 2128037 2063678 2011546 1977761 1962583 1962183 
1664.830 1973034 1994104 2026759 2073400 2135462 2210487 2290988 2364208 
1668.688 2415483 2436341 2430843 2412717 2395692 2386063 2381299 2374902 
1672.545 2361110 2337857 2308609 2280829 2263409 2261744 2272769 2286292 
1676.402 2291288 2282594 2261844 2234899 2208855 2190040 2183679 2192304 
1680.260 2216448 2255116 2308010 2375036 2454867 2539813 2608308 2624709 
1684.117 2562177 2434975 2290689 2167462 2076296 2009649 1954595 1899747 
1687.975 1838717 1771707 1705705 1651721 1619326 1613140 1631599 1668950 
1691.832 1720542 1784782 1863407 1961651 2083454 2226207 2374569 2495789 
1695.690 2551412 2523149 2428811 2306611 2188141 2090413 2014309 1952465 
1699.547 1894589 1837186 1786679 1754740 1745192 1754308 1773637 1795595 
1703.404 1814494 1827603 1834524 1837186 1837419 1834524 1824742 1803946 
1707.262 1769644 1724035 1673207 1625745 1590626 1573400 1575595 1594184 
1711.119 1623716 1658107 1694130 1731220 1770776 1814727 1863507 1914690 
1714.977 1963648 2003757 2027758 2028890 2002326 1948204 1875387 1799189 
1718.834 1734314 1689506 1665757 1659504 1664559 1674039 1681556 1682388 
1722.692 1675336 1663262 1651421 1644869 1644836 1647863 1647995 1639714 
1726.549 1620923 1594716 1569176 1555276 1561960 1593652 1647563 1714421 
1730.406 1782487 1843542 1894688 1937853 1976030 2008850 2029622 2029090 
1734.264 2004823 1969007 1939717 1928934 1939052 1964480 1995635 2020501 
1738.121 2026859 2006087 1959454 1899814 1846936 1816523 1813396 1830232 
1741.979 1853192 1865737 1855521 1818187 1757767 1685714 1615502 1559200 
1745.836 1523687 1510520 1515408 1530703 1544935 1546963 1529673 1492400 
1749.693 1441999 1391570 1355971 1344404 1357965 1389409 1428369 1465603 
1753.551 1495991 1518035 1533131 1543405 1550887 1556108 1558768 1557538 
1757.408 1552250 1544469 1537586 1536223 1544602 1567747 1608484 1666655 
1761.266 1735711 1802782 1852526 1871094 1853358 1802017 1726463 1638916 
1765.123 1553248 1483523 1440469 1430463 1451241 1492333 1536090 1565918 
1768.981 1571438 1550588 1507295 1448215 1381465 1315356 1259792 1224237 
1772.838 1214535 1230251 1265375 1311335 1358132 1395991 1417831 1419759 
1776.695 1403371 1374850 1342676 1313396 1289933 1269661 1246334 1212840 
1780.553 1165594 1107026 1045576 991241 952886 936913 946709 982075 1039498 
1784.892 1111876 1189183 1260290 1315922 1349656 1358597 1345501 1316187 
1788.750 1280329 1248161 1229321 1228490 1243011 1261354 1267236 1246068 
1792.607 1195197 1124765 1052252 993134 956339 944285 953948 978954 1011500 
1796.947 1045078 1075038 1098954 1115630 1123635 1119882 1100316 1061054 
1800.804 1001437 926786 848363 780344 736796 728266 757773 821008 906465 
1805.144 999145 1082777 1144465 1178153 1185263 1173435 1153302 1134831 
1809.001 1123270 1117889 1113603 1104202 1085733 1059393 1030929 1008511 
1812.859 998880 1005156 1026146 1057533 1092642 1123038 1140877 1139482 
1816.716 1115264 1069125 1006850 938242 873927 823963 793622 783332 787946 
1821.056 800062 812311 819714 820909 817689 812742 808460 804941 801655 
1825.395 799431 802219 817987 855401 921739 1018839 1139349 1263481 1363250 
1829.735 1410384 1392567 1320641 1223606 1131874 1066634 1038236 1046307 
1833.592 1082843 1134964 1188187 1228822 1246267 1235368 1196526 1135927 
1837.450 1063811 993566 937843 904240 894612 905004 927350 952886 975301 
1841.789 990677 997850 997418 988750 969489 936515 889897 835449 784095 
1846.129 747982 736132 750703 786186 830137 866324 879472 863037 819979 
1850.469 761856 703408 657844 632259 626851 635345 648884 659072 661129 
1854.808 654127 640854 625125 610426 600704 600538 613910 645931 700421 
1859.148 778319 876284 986791 1097924 1196825 1273550 1321837 1340183 
1863.005 1330312 1295051 1237129 1158817 1061951 949034 824029 694182 569881 
1867.345 466678 403262 395170 447971 551767 685321 823830 947174 1044679 
1871.684 1112939 1154863 1177588 1189648 1198320 1208188 1219452 1229520 
1875.542 1234637 1231813 1220250 1201443 1176425 1144764 1103305 1046738 
1879.399 970386 872831 757806 634582 515108 411189 331566 281200 260577 
1883.739 266147 292937 334849 386713 444621 505986 570147 637403 708519 
1888.078 784493 865328 948038 1026113 1091247 1133967 1147488 1130180 
1891.936 1084670 1018275 940799 864930 803414 768195 766901 801323 865361 
1896.276 947573 1035213 1115995 1182073 1230849 1265641 1294220 1326158 
1900.133 1369100 1425643 1491037 1554312 1602332 1622785 1609815 1564887 
1903.990 1497287 1418529 1340748 1273849 1223473 1193569 1185695 1200247 
1907.848 1235335 1285347 1340051 1384889 1405132 1390141 1337790 1256103 
1911.705 1159581 1065737 989780 941695 925757 941562 985396 1054710 1147588 
1916.045 1262284 1393864 1531169 1653051 1735811 1759065 1714055 1604460 
1919.902 1442697 1242911 1017743 781074 548648 339193 172728 65510 24486 
1924.242 47284 123276 237304 370895 508341 635113 741509 823863 882659 
1928.581 921407 944949 959627 972445 992271 1030829 1098655 1204500 1349722 
1932.921 1525782 1712259 1882242 2010515 2080092 2089347 2050295 1986648 
1936.778 1924441 1881044 1861444 1852693 1829999 1764454 1635822 1439705 
1940.636 1195430 942426 737228 631330 650477 783132 984732 1193503 1347595 
1944.975 1406927 1355805 1206494 990743 754155 542278 390162 318236 327819 
1949.315 404257 522274 656881 789141 910416 1025914 1149515 1297576 1480530 
1953.655 1695460 1921812 2125373 2259978 2282994 2165264 1902343 1515973 
1957.512 1052717 575953 148134 -173190 -347569 -360547 -223762 28728 351362 
1961.852 697733 1033719 1338954 1605159 1829267 2006820 2123641 2158804 
1965.709 2085652 1886402 1564587 1156657 730357 364561 130600 65643 170740 
1970.049 413676 746056 1111776 1460250 1757934 1987214 2146283 2241260 
1973.906 2281628 2277232 2242126 2192737 2146150 2111056 2078627 2023198 
1977.764 1905571 1690837 1368768 965106 539525 165072 -88326 -178257 -98926 
1982.103 121486 427341 752662 1034981 1236166 1342444 1362918 1318082 
1985.961 1233940 1132738 1029434 931269 836047 734539 614607 467972 297413 
1990.300 125264 -8647 -49863 53183 326459 758669 1298008 1866303 2368772 
1994.640 2724792 2878028 2805422 2519983 2067041 1518367 956306 467739 
1998.497 124336 -36280 -18223 131893 337137 504460 555814 449364 193545 
2002.837 -157987 -521250 -812944 -979463 -1005381 -915852 -756354 -575256 
2006.694 -402491 -242705 -86338 71906 220596 330538 371790 331267 231569 
2011.034 125596 85129 166497 386150 709482 1060954 1351484 1507761 1503970 
2015.373 1363217 1150478 941496 803879 774071 852546 1011234 1211677 1420490 
2019.713 1607553 1752012 1834691 1841046 1765020 1613772 1406163 1166192 
2023.570 915994 666439 420608 176673 -60564 -275852 -443405 -541304 -562086 
2027.910 -524592 -468130 -439466 -468295 -546731 -628363 -646460 -548651 
2031.767 -321744 -12126 290185 481671 496300 333191 60904 -218265 -399545 
2036.107 -420433 -279528 -29653 252720 503166 685321 798999 861709 891690 
2040.447 891955 851716 756910 607174 425019 253947 138654 114161 189468 
2044.786 348809 562317 804975 1065471 1342277 1633993 1922011 2163333 
2048.644 2304279 2296085 2121177 1804046 1408290 1014356 691660 481704 
2052.501 384027 363897 369668 359421 316644 255372 208827 213634 288262 
2056.841 424389 589191 739817 841358 878774 862506 824992 808759 848164 
2061.180 961719 1146226 1379304 1624814 1842610 1999563 2073500 2059717 
2065.038 1969839 1828602 1665491 1507495 1375416 1278003 1214335 1178352 
2068.895 1161408 1156591 1159514 1167023 1175893 1181409 1179116 1166757 
2072.752 1147422 1129715 1125230 1143136 1185130 1243077 1301465 1342111 
2076.610 1352315 1331476 1289169 1242313 1205198 1182605 1166458 1138751 
2080.467 1080219 981610 850256 710776 596789 540586 560028 650776 787813 
2084.807 934257 1052983 1118254 1123835 1082976 1023290 973209 955609 979452 
2089.146 1039464 1120081 1203271 1275145 1330711 1374053 1414174 1459951 
2093.004 1515342 1577191 1636255 1683818 1713722 1728725 1738106 1754008 
2096.861 1785381 1831796 1880212 1909332 1894622 1815026 1663362 1446054 
2100.719 1185063 910317 656749 455600 328880 289058 336042 460077 639029 
2105.058 844745 1044712 1209484 1320940 1376645 1389509 1382296 1379836 
2108.916 1396589 1431793 1467564 1479134 1444924 1357965 1230517 1091546 
2112.773 976397 910416 901551 935452 984134 1015751 1010769 968692 909055 
2117.113 862274 857360 912110 1025947 1180379 1346033 1493298 1596612 
2120.970 1642109 1627142 1559333 1453169 1327255 1204367 1106993 1054245 
2124.828 1058563 1120247 1227992 1358663 1487413 1589429 1649226 1661732 
2128.685 1632364 1572103 1493331 1407526 1322469 1243177 1172239 1108919 
2132.542 1047868 978954 891889 779182 645002 508905 406214 375272 445350 
2136.882 623732 889067 1196460 1489540 1723569 1874755 1949502 1974199 
2140.740 1984251 2003657 2034682 2059517 2050129 1982687 1848234 1656410 
2144.597 1427704 1185695 944086 708453 481008 268767 90664 -26440 -59570 
2148.937 -298 135572 309748 470857 577877 614010 593969 557340 551634 611289 
2153.758 741808 918584 1098456 1237196 1306184 1303592 1250222 1178419 
2157.616 1115397 1074108 1049661 1028172 996123 947407 884319 813771 740514 
2161.955 669359 604586 555084 535345 565701 663319 841292 1100482 1429100 
2166.295 1803747 2196100 2577609 2921991 3206759 3414063 3531932 3558556 
2170.152 3502036 3383540 3228857 3061115 2893405 2723391 2536847 2318170 
2174.010 2060782 1778161 1502408 1278900 1151940 1146425 1260988 1463142 
2177.867 1701481 1914923 2050195 2076329 1983253 1784316 1507993 1192805 
2181.725 878409 596756 371193 210717 114758 75817 86223 143328 252057 422797 
2186.546 666107 983304 1359262 1758333 2131133 2425545 2600675 2641943 
2190.404 2564610 2408086 2219912 2045169 1911262 1823311 1768147 1722371 
2194.261 1661898 1568112 1432491 1254641 1040760 803116 558004 326526 131131 
2198.601 -5268 -66660 -48141 41452 182043 346554 507611 647258 756744 836677 
2203.423 893118 934157 966634 997485 1034582 1087062 1164631 1272852 1408855 
2207.762 1557837 1694130 1789141 1819485 1776232 1671079 1535259 1412313 
2211.620 1345169 1366375 1486216 1691169 1945875 2204826 2422213 2560777 
2215.477 2601642 2542846 2397991 2185377 1924907 1630202 1309075 968759 
2219.334 621840 288361 397 -207700 -306448 -280554 -135993 98452 376731 
2223.674 652037 882493 1045841 1139781 1177920 1180412 1164564 1140412 
2227.531 1109019 1067132 1011566 946643 883423 838835 829507 869379 963180 
2231.871 1106295 1284649 1478137 1663362 1815758 1916553 1953696 1926571 
2235.729 1845805 1732717 1613074 1509290 1437145 1400279 1391204 1394030 
2239.586 1391371 1368867 1319411 1242679 1146192 1042786 947606 879604 
2243.443 857460 895442 1001271 1170079 1382163 1602931 1792634 1913625 
2247.301 1940915 1871161 1722737 1532200 1341446 1192273 1114866 1122008 
2251.158 1210282 1362452 1551718 1744460 1908034 2013976 2043937 1994903 
2255.016 1882442 1737774 1598175 1500080 1465603 1496057 1571937 1659537 
2258.873 1723369 1734746 1683352 1577390 1440569 1302096 1190977 1127688 
2262.730 1121543 1171043 1266239 1392035 1528675 1655446 1754008 1809802 
2266.588 1817122 1779758 1710163 1624548 1538783 1463674 1401476 1348227 
2270.445 1296912 1242213 1183502 1125662 1076101 1042055 1027408 1031294 
2274.303 1049096 1075303 1103571 1128452 1144797 1146558 1128652 1088424 
2278.160 1029202 961420 902946 874790 893516 966766 1087693 1237794 1388944 
2282.500 1514145 1594384 1621721 1600869 1544769 1469825 1389875 1314393 
2286.357 1247796 1191575 1146126 1113039 1094370 1092344 1106694 1134798 
2290.215 1170777 1207457 1237595 1254807 1255771 1239721 1209351 1169714 
2294.072 1128419 1093905 1073775 1074274 1097692 1142638 1203503 1272486 
2297.929 1340981 1401210 1448548 1480231 1496988 1501643 1498784 1493996 
2301.787 1492566 1499249 1516805 1544735 1579519 1615236 1644503 1661566 
2305.644 1663495 1652220 1632962 1613140 1600170 1598906 1610846 1633594 
2309.502 1662797 1692333 1715153 1724899 1715552 1682587 1624548 1544037 
2313.359 1449379 1352082 1266571 1206095 1178385 1184798 1218921 1270060 
2317.217 1325327 1374618 1412047 1436680 1451307 1460383 1467697 1475710 
2321.074 1485717 1499515 1518966 1546132 1581680 1622719 1662896 1693797 
2324.931 1706903 1697190 1666023 1620623 1573932 1538916 1526580 1540047 
2328.789 1573699 1614238 1645368 1653517 1632729 1587832 1533197 1489142 
2332.646 1472983 1496323 1559433 1652452 1756769 1852094 1921213 1954628 
2336.504 1954062 1930298 1900612 1881277 1882808 1906403 1943312 1977328 
2340.361 1989843 1967276 1903774 1803081 1678962 1550920 1438674 1359228 
2344.219 1322170 1328518 1370031 1431394 1495625 1547196 1575761 1578022 
2348.076 1555443 1514211 1462910 1412745 1374850 1360325 1377377 1429067 
2351.933 1511584 1614737 1725199 1829500 1918983 1991807 2052692 2109224 
2355.791 2168294 2231136 2292354 2339656 2358511 2338690 2279630 2193136 
2359.648 2100967 2030088 2001094 2020834 2077561 2145418 2190772 2184578 
2363.506 2114818 1990809 1842577 1707934 1624182 1612708 1672808 1783085 
2367.363 1909764 2018570 2083255 2094308 2057986 1991408 1914557 1844906 
2371.220 1792934 1761726 1749118 1751480 1764820 1785381 1809270 1831131 
2375.078 1843509 1839416 1812830 1762724 1692832 1612276 1532499 1463907 
2378.935 1414174 1385421 1375083 1377576 1387149 1400046 1415570 1435915 
2382.793 1464805 1505433 1558036 1619260 1682122 1737607 1776132 1790372 
2386.650 1777197 1738273 1679893 1612043 1546398 1493298 1460051 1449578 
2390.508 1459818 1484985 1517137 1548626 1573067 1586702 1588098 1576891 
2394.365 1553547 1518002 1470723 1413277 1349855 1287640 1235069 1201012 
2398.222 1190778 1204268 1234837 1271755 1303160 1320109 1320807 1310604 
2402.080 1301332 1305552 1332340 1383260 1451207 1521825 1579120 1610746 
2405.937 1611843 1586668 1546332 1505067 1474047 1459186 1459086 1467863 
2409.795 1477704 1482392 1480530 1474779 1470390 1472285 1482725 1500313 
2413.652 1520562 1537354 1546365 1545367 1535558 1520229 1503272 1487246 
2417.510 1472983 1458721 1441999 1420390 1392866 1360591 1326723 1296314 
2421.367 1273915 1263946 1269861 1292525 1331110 1382894 1443362 1507395 
2425.224 1569842 1626410 1674904 1714354 1745957 1770809 1789673 1801917 
2429.082 1805277 1797226 1776365 1743995 1704940 1666888 1638650 1626976 
2432.939 1633627 1654714 1680492 1697888 1695294 1665624 1609549 1534760 
2436.797 1455662 1387714 1343607 1330911 1349955 1394661 1454665 1518733 
2440.654 1576792 1621089 1647729 1655778 1646399 1622685 1588763 1548959 
2444.511 1506830 1465037 1424645 1385653 1347861 1311136 1277371 1249225 
2448.369 1229653 1219785 1218588 1222044 1224935 1223406 1216661 1209019 
2452.226 1207524 1219718 1249956 1296214 1350387 1400013 1434220 1446420 
2456.084 1437644 1415770 1391803 1375216 1370031 1373920 1380833 1384290 
2459.941 1381798 1376413 1375482 1386684 1413277 1451307 1490804 1519232 
2463.799 1525948 1507129 1467065 1416468 1367505 1328916 1303725 1288404 
2467.656 1276108 1259858 1236465 1207125 1176259 1148950 1129449 1118752 
2471.513 1116693 1121742 1133834 1153003 1179083 1209916 1240818 1265341 
2475.371 1277836 1275743 1261719 1242712 1227892 1224303 1233641 1251351 
2479.228 1269263 1278534 1274746 1261088 1247331 1247264 1272453 1328418 
2483.086 1411382 1509057 1603163 1676400 1715884 1716882 1682887 1624548 
2486.943 1555410 1488244 1432657 1393099 1369167 1356868 1351318 1348027 
2490.801 1344604 1341446 1340516 1344637 1355306 1372158 1392534 1412711 
2494.658 1428768 1438209 1440469 1436314 1426540 1411282 1389542 1359594 
2498.515 1321306 1278202 1237262 1209717 1207192 1237794 1303492 1398085 
2502.373 1508492 1616965 1707402 1768347 1794863 1789939 1761061 1718512 
2506.230 1671311 1626444 1588298 1559466 1541044 1533663 1536689 1548027 
2510.088 1563956 1580117 1591623 1595248 1590659 1579652 1566217 1554645 
2513.945 1548127 1547562 1552217 1559832 1568245 1575861 1582944 1590559 
2517.802 1600503 1615036 1635723 1663927 1699585 1741300 1785880 1827936 
2521.660 1861145 1878715 1877284 1857717 1826805 1796327 1781522 1794264 
2525.517 1841312 1919682 2017805 2116716 2197033 2243825 2250120 2219179 
2529.375 2161268 2090912 2020168 1956791 1902809 1856087 1814028 1776165 
2533.232 1745225 1727162 1727295 1747621 1783718 1826106 1861943 1878848 
2537.090 1869896 1835589 1784117 1727927 1680625 1652452 1646964 1661233 
2540.947 1687610 1717515 1744161 1765087 1782952 1803148 1831197 1870429 
2544.804 1919549 1973301 2023231 2060682 2079093 2075664 2051161 2009915 
2548.662 1957990 1901710 1848001 1803813 1775566 1769644 1790671 1839216 
2552.519 1910397 1993538 2074199 2136461 2168527 2166163 2134862 2087782 
2556.377 2042838 2017239 2021666 2058418 2120978 2198099 2276266 2345186 
2560.234 2399557 2438707 2464764 2480226 2485591 2479060 2457033 2416382 
2564.092 2357179 2283627 2204992 2133164 2081790 2061015 2075830 2123075 
2567.949 2192304 2267406 2330195 2366873 2371105 2346685 2306444 2268572 
2571.806 2250719 2263576 2308676 2377234 2455101 2526515 2580942 2615142 
2575.664 2633143 2643110 2653478 2668846 2688683 2708421 2721824 2724625 
2579.521 2715956 2698852 2679048 2664046 2660079 2671814 2701653 2749166 
2583.379 2810424 2878328 2943407 2994750 3023210 3024445 3000622 2960121 
2587.236 2915587 2880163 2862185 2863753 2880196 2903078 2924126 2939037 
2591.094 2948812 2959187 2976668 3004927 3042329 3082238 3115042 3131728 
2594.951 3128391 3107633 3077833 3050304 3035956 3041028 3065653 3103462 
2598.808 3144478 3178321 3197747 3201352 3194309 3186665 3189669 3212100 
2602.666 3255897 3315390 3377430 3426353 3448662 3437474 3395228 3332752 
2606.523 3266079 3210131 3175184 3164570 3174983 3199383 3230493 3264410 
2610.381 3299464 3336659 3376060 3415866 3452236 3480458 3496457 3499464 
2614.238 3491547 3477051 3460919 3448027 3441615 3445322 3461921 3494921 
2618.095 3545761 3613413 3691635 3770105 3835284 3876002 3885363 3864167 
2621.953 3820042 3765426 3712387 3668778 3637637 3616955 3602621 3591663 
2625.810 3583545 3580104 3584514 3597877 3618959 3643450 3666439 3683916 
2629.668 3695044 3701727 3708043 3717467 3731938 3750419 3770138 3786817 
2633.525 3796410 3796142 3784176 3760914 3727860 3689329 3651837 3623503 
2637.383 3613280 3627814 3669380 3735079 3816164 3900775 3976741 4035531 
2641.240 4073156 4091084 4093425 4085464 4070848 4050982 4025899 3995768 
2645.097 3962363 3929829 3903717 3889909 3892784 3913312 3949824 3997841 
2648.955 4052186 4107339 4158553 4203047 4238880 4265548 4284019 4296568 
2652.812 4305904 4315274 4327422 4343754 4363968 4386225 4407513 4424484 
2656.670 4434057 4434426 4424986 4406743 4382912 4358212 4338366 4329196 
2660.527 4335655 4359651 4400150 4452669 4511121 4568678 4620280 4663650 
2664.385 4698617 4726519 4748727 4764941 4773718 4772813 4760787 4738946 
2668.242 4710775 4681736 4657286 4641043 4633877 4633743 4637125 4641546 
2672.099 4645833 4651392 4661004 4676712 4699220 4725949 4752345 4772713 
2675.957 4782528 4779111 4762696 4735563 4701698 4665056 4629690 4598982 
2679.814 4576044 4563655 4563923 4577182 4602197 4635183 4670582 4701832 
2683.672 4723470 4732280 4728260 4714627 4696540 4679760 4668339 4664085 
2687.529 4665492 4668807 4669176 4662109 4644928 4617769 4582942 4544168 
2691.386 4505798 4471048 4442058 4419631 4403329 4392217 4385356 4382109 
2695.244 4381674 4383448 4386493 4390008 4393589 4397372 4401522 4406576 
2699.101 4412300 4418024 4422643 4425321 4426258 4427463 4432384 4444803 
2702.959 4467399 4499738 4538107 4575575 4603938 4617233 4613181 4594796 
2706.816 4569682 4548252 4540351 4552438 4585889 4637393 4699555 4763835 
2710.674 4822899 4871952 4909884 4938604 4962231 4985156 5011299 5043009 
2714.531 5080957 5123869 5169469 5215375 5258905 5297945 5331017 5357014 
2718.388 5375296 5385595 5388313 5384958 5378349 5372445 5371506 5379355 
2722.246 5397974 5426727 5462929 5501920 5539639 5572965 5601024 5624519 
2726.103 5644659 5662048 5675341 5681081 5675576 5655904 5621935 5576690 
2729.961 5526115 5477760 5437396 5408710 5391433 5382039 5374659 5363253 
2733.818 5343059 5311361 5267994 5215241 5157096 5098054 5042741 4995311 
2737.676 4957740 4930929 4913235 4901909 4893263 4883679 4870846 4853590 
2741.533 4832481 4808727 4783936 4759413 4736366 4715800 4699052 4687831 
2745.390 4683276 4686258 4695837 4709368 4722733 4731375 4731643 4722398 
2749.248 4705383 4684448 4664989 4651861 4647474 4651459 4661239 4672626 
2753.105 4681736 4686324 4686492 4684348 4682640 4683980 4689406 4698248 
2756.963 4708464 4717441 4723571 4726317 4726485 4725514 4724810 4725279 
2760.820 4727155 4730873 4737204 4748057 4766381 4794656 4834257 4883880 
2764.677 4939743 4995848 5046093 5086589 5116326 5137817 5156660 5178925 
2768.535 5209104 5249146 5297508 5350237 5402302 5449139 5488363 5519437 
2772.392 5543867 5564507 5584880 5608307 5637341 5673897 5718715 5771025 
2776.250 5829017 5889972 5951306 6011270 6069731 6128300 6189633 6256119 
2780.107 6329203 6408320 6491351 6574937 6656117 6732836 6804554 6872143 
2783.965 6936982 7000382 7063254 7126066 7189427 7254010 7321332 7392574 
2787.822 7468648 7549557 7634830 7723427 7814638 7908400 8005118 8105570 
2791.679 8209795 8316814 8425244 8532857 8638366 8742008 8844932 8949469 
2795.537 9057313 9168974 9282526 9395733 9505586 9610722 9711987 9812802 
2799.394 9917810 10031456 10156256 10292628 10438343 10590013 10744963 
2802.770 10901498 11059992 11221502 11387188 11556579 11727805 11897600 
2806.145 12063136 12223214 12379566 12537236 12702914 12883296 13082808 
2809.520 13302055 13537342 13782710 14030200 14274408 14512245 14744657 
2812.895 14975240 15208862 15450541 15703553 15969947 16250711 16547076 
2816.271 16860316 17192430 17544912 17917776 18309346 18716040 19133780 
2819.646 19558926 19990036 20427828 20875168 21336094 21814960 22315356 
2823.021 22840946 23395814 23984794 24613986 25289430 26016370 26797108 
2826.396 27631472 28516588 29448862 30426636 31451892 32531210 33674616 
2829.771 34895292 36206160 37617780 39139360 40776736 42535040 44419612 
2833.147 46437344 48596804 50908972 53384224 56033356 58863964 61880228 
2836.522 65081300 68461936 72012952 75721584 79574728 83558616 87659472 
2839.897 91864624 96159848 100529920 104959432 109432456 113936184 118463200 
2843.272 123010424 127579632 132173192 136790000 141422672 146053808 
2846.166 150655840 155194496 159627168 163905424 167978384 171786848 
2849.059 175268016 178357984 180990048 183105008 184654080 185602336 
2851.952 185934144 185653024 184783376 183365056 181455744 179123456 
2854.845 176438272 173474352 170299488 166972496 163548688 160072992 
2857.738 156587584 153132992 149745552 146461808 143315616 140334560 
2860.631 137542976 134958480 132591512 130447400 128525672 126820848 
2863.524 125323656 124021976 122901712 121946592 121140208 120463592 
2866.417 119895008 119410688 118981240 118573336 118152248 117679288 
2869.310 117118936 116439408 115613640 114624136 113462976 112132904 
2872.203 110648064 109034096 107326064 105563792 103792560 102056072 
2875.096 100392248 98835680 97412456 96141112 95035368 94102792 93347640 
2878.471 92771144 92372400 92149536 92099968 92220984 92509240 92961136 
2881.847 93572112 94336136 95246232 96294528 97472368 98772200 100185960 
2885.222 101705416 103322000 105024840 106801824 108640400 110528128 
2888.115 112455176 114414904 116402888 118416208 120451000 122500736 
2891.008 124557816 126612352 128656072 130684376 132696080 134693376 
2893.901 136679184 138655200 140620048 142569536 144498336 146402912 
2896.794 148282496 150141312 151986560 153828240 155676384 157539664 
2899.687 159425120 161337600 163278752 165249424 167247776 169272272 
2902.580 171321616 173397104 175503360 177649072 179844720 182100768 
2905.473 184425488 186822880 189293456 191835440 194447616 197130528 
2908.366 199887136 202722048 205639680 208643216 211733552 214911040 
2911.260 218175984 221528384 224967088 228487168 232076272 235713696 
2914.153 239371616 243015552 246610256 250121184 253513488 256754400 
2917.046 259807136 262629664 265177824 267402592 269255072 270691808 
2919.939 271670880 272158112 272126848 271559552 270452864 268819584 
2922.832 266689920 264104640 261112480 257761184 254091328 250138368 
2925.725 245934480 241511024 236905840 232159456 227313072 222406928 
2928.618 217473088 212537616 207622704 202746928 197930016 193191552 
2931.511 188547152 184008464 179579648 175259184 171043168 166929008 
2934.404 162919056 159020672 155244272 151600656 148099712 144747312 
2937.297 141549328 138512336 135644816 132959936 130471560 128192024 
2940.190 126130504 124290280 122669080 121261008 120058400 119053240 
2943.083 118237368 117602832 117140024 116837984 116685944 116672632 
2945.976 116788592 117027048 117380136 117838072 118385608 118998680 
2948.869 119646904 120292880 120896176 121420584 121833408 122110016 
2951.762 122234160 122196184 121991432 121618096 121075624 120363000 
2954.656 119478696 118421728 117193264 115799616 114253320 112572336 
2957.549 110779744 108898256 106945528 104933488 102865424 100739040 
2960.442 98549016 96291920 93967560 91580152 89136464 86645136 84114960 
2963.817 81553832 78970704 76375960 73780952 71199328 68644368 66128120 
2967.192 63661544 61253000 58909044 56635044 54434144 52307608 50254412 
2970.567 48271232 46354348 44499776 42706280 40974884 39309484 37714952 
2973.943 36196040 34755284 33392456 32104742 30888102 29737060 28646074 
2977.318 27610640 26625580 25686510 24789456 23930732 23108402 22321320 
2980.693 21569296 20852052 20168890 19517818 18897034 18304300 17738708 
2984.068 17200634 16691772 16213564 15766665 15349576 14959189 14590501 
2987.444 14238491 13899150 13569919 13249615 12937876 12634923 12340907 
2990.819 12056357 11782717 11523199 11281314 11060944 10864975 10693239 
2994.194 10542449 10406678 10278344 10149914 10016197 9873845 9722763 
2997.569 9564755 9403657 9243972 9091011 8949908 8824676 8717364 8627010 
3001.427 8549753 8478490 8406157 8326473 8236505 8137406 8033536 7931480 
3005.284 7836499 7751287 7675400 7605393 7536981 7466592 7392574 7315402 
3009.142 7236558 7157796 7080025 7002874 6925838 6848546 6771032 6694778 
3012.999 6621329 6552198 6488089 6429202 6375333 6326682 6283616 6246202 
3016.856 6214068 6184659 6154748 6119798 6076182 6022122 5958730 5889402 
3020.714 5819144 5752693 5692932 5640430 5593572 5549371 5504772 5457460 
3024.571 5406127 5350405 5290096 5225938 5158672 5089975 5022059 4957405 
3028.429 4897552 4843370 4793684 4746550 4699387 4651459 4603838 4559938 
3032.286 4523978 4499672 4488423 4488523 4495620 4503990 4509012 4507204 
3036.144 4498299 4483769 4465959 4446778 4426827 4405639 4382042 4355133 
3040.001 4324310 4290043 4252666 4212951 4171131 4127777 4083725 4040681 
3043.858 4001019 3967245 3940763 3922105 3910036 3902045 3895225 3887903 
3047.716 3878409 3867142 3854339 3840499 3825290 3807707 3786583 3761382 
3051.573 3732038 3699856 3666272 3632658 3599982 3567743 3535706 3503271 
3055.431 3470973 3441448 3418004 3404812 3404879 3418972 3444320 3474413 
3059.288 3500833 3513726 3505409 3472142 3416033 3344772 3269050 3201185 
3063.146 3150452 3121216 3111838 3115976 3124653 3129793 3126823 3115142 
3067.003 3097522 3077499 3057945 3039593 3021609 3002491 2982073 2962289 
3070.860 2946877 2938670 2939037 2945109 2951147 2948678 2930498 2892804 
3074.718 2836337 2765938 2689617 2615075 2548079 2491423 2445171 2407753 
3078.575 2377468 2353114 2334925 2323266 2318502 2320668 2328496 2340122 
3082.433 2352781 2363175 2367773 2362676 2344853 2312673 2266873 2210987 
3086.290 2150346 2092111 2043204 2007885 1988811 1985416 1995036 2013344 
3090.147 2035714 2056554 2070936 2074532 2064477 2040575 2005155 1963182 
3094.005 1920813 1882808 1851628 1826272 1802749 1776598 1745724 1711693 
3097.862 1679993 1658140 1653284 1669316 1705306 1756270 1815193 1876186 
3101.720 1935557 1992906 2049463 2105895 2160802 2210021 2248088 2270504 
3105.577 2275300 2263143 2237597 2203327 2163699 2120412 2073666 2023697 
3109.435 1971736 1920414 1874222 1836654 1809503 1792401 1781954 1774236 
3113.292 1766417 1757135 1747820 1741233 1740834 1749018 1766517 1792734 
3117.149 1825940 1863341 1901810 1937754 1966743 1984518 1987147 1973134 
3121.007 1943345 1901844 1855521 1811566 1776398 1754540 1746955 1752245 
3124.864 1767282 1788342 1812131 1835756 1857318 1875321 1888898 1897617 
3128.722 1901278 1900180 1895421 1887700 1878682 1869530 1861877 1857052 
3132.579 1855787 1858383 1863374 1868832 1872492 1873025 1870928 1867933 
3136.437 1867534 1872625 1884439 1900978 1917618 1927869 1925539 1907068 
3140.294 1872459 1825640 1773005 1722039 1679427 1649659 1634392 1634027 
3144.151 1646532 1668850 1696924 1726230 1751912 1770376 1779625 1779991 
3148.009 1773604 1763190 1751413 1738805 1724134 1705073 1680059 1649592 
3151.866 1616799 1587600 1568378 1564222 1577623 1607154 1648827 1696857 
3155.724 1745392 1789340 1825441 1851728 1867800 1874822 1874855 1870495 
3159.581 1864373 1857584 1849964 1838983 1822080 1797458 1765885 1731453 
3163.438 1700383 1678895 1670081 1672808 1680957 1686346 1681556 1663329 
3167.296 1634392 1602332 1576393 1564122 1568977 1588897 1617929 1649093 
3171.153 1677398 1700317 1718180 1732152 1743562 1751646 1755272 1753077 
3175.011 1745857 1735844 1726596 1721074 1720242 1722671 1725299 1724667 
3178.868 1719244 1709764 1698753 1689406 1683851 1682321 1683652 1685714 
3182.726 1686778 1686279 1684583 1681822 1677598 1670480 1659470 1645435 
3186.583 1631565 1623484 1627973 1650191 1690803 1744826 1802682 1852193 
3190.440 1882009 1885770 1862842 1819618 1766451 1714887 1675103 1652652 
3194.298 1648295 1657807 1674571 1690338 1698387 1695094 1680558 1658240 
3198.155 1633760 1612908 1599173 1593319 1592688 1593419 1591025 1583143 
3202.013 1569908 1553481 1537121 1523022 1512150 1503405 1495126 1486016 
3205.870 1476242 1466933 1460150 1456493 1455529 1454831 1451972 1444991 
3209.728 1434419 1422551 1413044 1408523 1409387 1413277 1416833 1416368 
3213.585 1409952 1398617 1385620 1374651 1367937 1365145 1363383 1358663 
3217.442 1347429 1329216 1306317 1284051 1267867 1262484 1269429 1287374 
3221.300 1312000 1337990 1360325 1374618 1378573 1371726 1355539 1332539 
3225.157 1307048 1283220 1265375 1256103 1255605 1261952 1271223 1278368 
3229.015 1279731 1273317 1259825 1242413 1225034 1211079 1202839 1200314 
3232.872 1202241 1206560 1211744 1217558 1224802 1235103 1249424 1267501 
3236.729 1286842 1303658 1313163 1311601 1297144 1270824 1236266 1199849 
3240.587 1167355 1143834 1131675 1130280 1136259 1144830 1151807 1154564 
3244.444 1152737 1148784 1146658 1150378 1162405 1183004 1209551 1237495 
3248.302 1261088 1275477 1277703 1267867 1248793 1225134 1202174 1183768 
3252.159 1171873 1165495 1162571 1159847 1155063 1147721 1138784 1129748 
3256.017 1121941 1115364 1108886 1100847 1089885 1076433 1062781 1052252 
3259.874 1047735 1050226 1058563 1068959 1076333 1076001 1065903 1045742 
3263.731 1018308 988120 960590 940400 931401 936382 956173 989846 1034748 
3268.071 1085966 1137954 1184931 1223174 1250920 1269529 1281758 1290498 
3271.928 1297543 1302329 1302993 1297576 1285314 1268133 1249325 1232212 
3275.786 1217891 1204168 1185828 1157122 1114666 1059626 998880 943422 
3279.643 904838 891756 907096 947008 1002234 1061486 1114367 1154764 1181043 
3283.983 1195563 1202839 1207989 1213638 1220881 1227560 1230451 1225500 
3287.840 1208653 1178751 1136857 1087394 1037007 993964 964508 951690 954380 
3292.180 967630 984533 999145 1008743 1015153 1022958 1037671 1062715 
3296.037 1097559 1136990 1173269 1199417 1210780 1207989 1195496 1180578 
3299.895 1170013 1168219 1176425 1192306 1211611 1228989 1240286 1242380 
3303.752 1233674 1214335 1186359 1153235 1119948 1091978 1074207 1069225 
3307.610 1076831 1093473 1113138 1129383 1137455 1135694 1125230 1109584 
3311.467 1093207 1079322 1069092 1061685 1054344 1044712 1031294 1014323 
3315.324 996123 979950 969024 965438 969722 980083 993599 1006817 1016980 
3319.664 1023257 1026146 1028438 1033121 1042553 1057002 1074672 1091912 
3323.521 1104701 1110348 1108022 1100183 1091314 1085866 1087760 1098157 
3327.379 1115231 1135196 1153734 1166757 1172538 1170910 1163767 1153833 
3331.236 1144232 1137455 1135661 1139714 1149315 1163335 1178950 1192672 
3335.094 1200812 1200812 1191908 1175794 1156358 1138252 1125230 1118819 
3338.951 1118453 1120845 1122274 1120015 1113636 1105398 1099153 1099851 
3342.809 1110348 1131177 1159415 1189881 1216030 1232378 1235966 1226696 
3346.666 1207524 1183004 1157754 1135794 1118819 1106993 1099153 1094137 
3350.523 1091148 1090417 1092642 1098256 1106827 1116460 1124499 1128286 
3354.381 1125994 1117988 1106195 1093672 1083740 1078193 1077462 1080219 
3358.238 1084704 1089753 1095001 1101412 1109949 1120845 1132472 1141741 
3362.096 1145163 1140578 1127854 1109883 1091945 1079090 1074938 1079954 
3365.953 1091015 1102840 1109750 1108155 1097625 1080385 1060921 1043450 
3369.811 1030896 1023755 1020899 1020135 1020400 1021895 1026080 1035180 
3373.668 1051289 1074174 1102043 1130578 1155461 1171608 1176492 1169448 
3377.525 1152737 1130412 1108155 1091115 1083441 1087228 1101777 1124333 
3381.383 1150412 1174498 1191675 1198254 1193170 1177322 1154299 1129017 
3385.240 1106295 1090450 1084039 1087593 1100116 1119583 1143103 1168252 
3389.098 1192772 1214800 1232178 1243310 1245403 1237262 1218522 1190512 
3392.955 1156524 1122041 1092144 1071118 1060688 1060389 1067165 1076831 
3396.813 1085833 1092277 1096064 1098854 1102276 1107092 1112175 1114999 
3400.670 1112407 1102741 1085733 1064408 1043018 1026644 1018474 1019172 
3404.527 1026412 1036010 1043782 1046705 1044081 1038103 1032457 1030862 
3408.385 1036442 1050027 1070188 1092908 1113603 1127290 1130080 1120513 
3412.242 1100083 1073643 1047635 1029733 1025748 1037937 1063844 1096230 
3416.100 1125961 1142239 1138286 1111411 1064774 1005987 945281 893284 
3419.957 857759 843018 849060 872134 906631 945846 983703 1014588 1034582 
3424.297 1041557 1035878 1020832 1001337 983470 972046 968892 972445 977791 
3428.636 978256 968892 947838 917621 884186 855501 838204 835980 847102 
3432.976 866656 887540 903012 908424 902879 888137 867818 846039 825822 
3437.315 808626 794551 783000 773473 766237 762520 764046 772013 786087 
3441.655 804178 822004 834652 838005 830569 814402 795547 782369 783498 
3445.995 804875 847367 905502 968759 1025083 1065770 1086896 1090583 1082943 
3450.334 1071616 1062183 1057367 1056005 1054411 1048465 1035114 1014721 
3454.192 989813 964508 942293 925126 913006 903975 895707 886610 876716 
3458.531 866557 857427 850322 844645 839333 832860 824295 814004 802916 
3462.871 792825 784858 778618 772975 766038 756645 744895 733776 727835 
3467.210 731718 749608 782402 827017 877114 924262 960457 979950 981478 
3471.550 968228 947539 927118 914467 913371 923532 941131 960855 978290 
3475.890 992071 1003263 1015618 1032955 1056537 1084405 1110680 1128153 
3479.747 1129914 1112308 1077462 1032589 988186 955509 942326 951225 978821 
3484.087 1018474 1062349 1103040 1136492 1161408 1178784 1191177 1201178 
3487.944 1209983 1217326 1220948 1217459 1204102 1178684 1141242 1093539 
3491.802 1040062 986160 937677 900156 876882 868316 872101 883190 895143 
3496.141 902115 900256 889366 871636 851683 834287 822668 817722 817722 
3500.481 819348 818253 811414 798103 780012 760959 744795 733179 726209 
3504.820 720766 713564 702147 686416 668463 652435 643044 644238 656483 
3509.160 676991 699558 717812 726541 723620 711406 694647 679049 669458 
3513.500 669060 677655 693585 713564 734705 754686 772743 788443 801555 
3517.839 811647 817954 819979 817821 812709 806833 802485 801489 803779 
3522.179 807962 811282 811282 806734 798966 791033 786253 787016 793622 
3526.518 803248 811647 814435 808825 794983 775133 753093 731751 713132 
3530.858 696571 681306 666206 651970 639759 632392 631728 639195 653298 
3535.198 672014 691859 710178 725976 740281 755217 772876 793987 818120 
3539.537 843085 866756 887241 904141 918053 931302 945879 964043 986094 
3543.877 1010238 1032457 1046738 1046473 1026379 985131 926255 858257 791398 
3548.216 735668 698065 680244 679713 690498 704935 716086 720367 718608 
3552.556 715920 718343 729992 750836 776693 800394 815929 819448 811282 
3556.896 796045 780344 771880 775963 794883 826884 866656 907428 941263 
3561.235 961852 964309 945647 905336 844844 767996 681306 594831 521279 
3565.575 475402 470824 513848 597950 703541 807531 890959 944518 967829 
3569.914 965206 943521 909752 870673 831598 796344 766569 742505 722292 
3574.254 704138 687047 670852 656218 644272 635578 630003 626552 624296 
3578.594 622769 622039 623068 626519 632127 638465 643309 643973 638962 
3582.933 628211 613711 599211 589025 587532 597718 620712 654094 692755 
3587.273 729030 756678 773374 781240 784726 787946 793157 800294 806767 
3591.612 808062 798966 774867 733411 677323 614408 556710 515838 500380 
3595.952 511824 545463 591547 639360 678817 703176 709614 700355 681704 
3600.292 661527 649017 650543 668961 702910 747616 797174 845243 887407 
3604.631 920975 945713 963578 976762 987655 996422 1000939 997651 983968 
3608.971 960723 932398 905867 888270 883987 894313 916194 943223 966401 
3613.310 977592 972910 953351 923333 888569 854007 823299 799132 783796 
3617.650 779448 787116 805672 831565 859551 885348 906565 923897 939138 
3621.990 954048 969058 982773 993566 999378 1000009 997518 996422 1001603 
3626.329 1017743 1046273 1083408 1117656 1132339 1114899 1067464 1007016 
3630.187 952852 915961 896903 891557 893649 897168 897201 891723 880335 
3634.526 865295 849226 834752 823664 817423 816626 821606 831565 844479 
3638.866 857626 868449 874923 877114 875554 872068 866756 858655 844446 
3643.205 820245 782966 731486 667666 596723 526852 467640 429596 419945 
3647.545 440243 485021 544368 609099 673208 734241 790302 839997 882260 
3651.885 918352 950927 984799 1024519 1073310 1131309 1193569 1249125 
3655.742 1283087 1282721 1244971 1177555 1094303 1007846 927583 858091 
3659.599 801024 756412 723388 700952 687545 681173 678618 675764 668463 
3663.939 653298 628709 595528 557440 519521 487177 466446 461935 477359 
3668.279 514014 570512 640157 711506 772544 816859 846073 866922 887905 
3672.618 916891 959228 1017544 1088225 1157023 1198453 1190479 1132738 
3676.476 1048465 965239 901717 865361 855435 866092 888502 912641 931169 
3680.815 941164 944484 946145 950827 961287 977194 995226 1011267 1023091 
3685.155 1031095 1039863 1055640 1083940 1125895 1175163 1216130 1228623 
3689.012 1199583 1130213 1037538 943555 867055 816029 788775 778120 776792 
3693.352 780245 787813 802153 825921 860381 903012 947971 987455 1015817 
3697.691 1030563 1033519 1028072 1018242 1004957 986692 959394 920245 870341 
3702.031 817124 771316 744198 741908 765573 811879 874491 946078 1019238 
3706.371 1087162 1144232 1185595 1207657 1207989 1185761 1142438 1083043 
3710.228 1016448 953317 904141 875023 866424 874525 894180 920975 951325 
3714.568 982872 1012596 1036376 1050259 1049462 1030862 993865 942193 882427 
3718.907 823930 776461 748280 744994 768826 817788 885083 960258 1032224 
3723.247 1091845 1134831 1162505 1179116 1190346 1199317 1205663 1205431 
3727.104 1193503 1167156 1127423 1079754 1031825 991440 965405 957236 965571 
3731.444 983404 1000042 1005389 994496 970220 941861 921108 915729 926288 
3735.783 945115 962051 969954 968892 962250 954845 949200 945946 944119 
3740.123 942559 941263 942260 949665 969456 1008278 1070587 1154199 1244440 
3744.463 1318314 1356037 1354409 1323632 1275244 1216429 1149182 1073643 
3748.320 990577 904606 826353 769291 746189 760428 804643 861875 916360 
3752.660 956306 977360 980050 967231 941629 906033 863602 819016 778950 
3756.999 751965 745625 763880 804244 857327 908723 943920 954778 941263 
3761.339 911246 875421 844512 826950 826685 844579 876683 915231 949964 
3765.678 972611 979552 972478 955908 935552 915862 900555 891225 889399 
3770.018 894910 907229 925258 947639 972312 996754 1018076 1032955 1039398 
3774.358 1037140 1028072 1016647 1008876 1010703 1026179 1056304 1098389 
3778.215 1145528 1187489 1214800 1221346 1207457 1178319 1141010 1101346 
3782.073 1061884 1024153 988086 954446 925425 904008 893184 894545 906930 
3786.412 927284 951126 974371 993666 1006784 1012994 1012297 1004891 991175 
3790.752 971748 948137 923100 901219 887672 888004 906764 945879 1003928 
3795.091 1075303 1149515 1212342 1251584 1260257 1239422 1194665 1133602 
3798.949 1062947 987621 913803 849060 803248 783995 791597 817224 848894 
3803.288 878177 901850 919680 933062 942791 948004 946211 934788 913139 
3807.628 885282 858721 841889 841026 859684 897434 949997 1008610 1063379 
3811.968 1104402 1124665 1122672 1101412 1068228 1033652 1010736 1010703 
3815.825 1037804 1086265 1143867 1198320 1242014 1272253 1287740 1287507 
3819.682 1269661 1233807 1183369 1127987 1079555 1045476 1026312 1017876 
3823.540 1015352 1014489 1012496 1007415 998614 985994 970419 953351 937013 
3827.879 924063 917721 921540 938375 970386 1016315 1070886 1123602 1163036 
3832.219 1178917 1167588 1132206 1082611 1030563 987356 960955 953517 961287 
3836.559 975633 987123 989714 984201 976696 975733 985961 1005621 1027541 
3840.898 1043649 1047901 1038734 1019238 996621 978887 971714 976496 989979 
3845.238 1006850 1021330 1030331 1032955 1030729 1026213 1022393 1022493 
3849.095 1029334 1046805 1080319 1136824 1224470 1348692 1505633 1669548 
3852.953 1791569 1825308 1763689 1644304 1514976 1408855 1337059 1298042 
3856.810 1282190 1277371 1271423 1255705 1226363 1184033 1133336 1080684 
3860.667 1033752 998415 977858 972179 978456 991939 1008046 1023057 1034582 
3865.007 1042088 1046174 1048233 1049894 1052617 1057799 1066601 1079223 
3868.865 1094171 1108189 1115862 1113736 1102409 1085501 1068660 1057400 
3872.722 1056869 1070421 1098157 1135130 1173103 1202806 1218123 1218289 
3876.579 1206128 1186990 1166857 1152970 1151209 1165561 1195363 1234504 
3880.437 1272818 1299936 1310770 1305586 1289036 1266604 1243676 1225001 
3884.294 1214468 1215100 1226430 1244207 1260722 1268598 1262949 1242546 
3888.152 1208653 1164664 1116095 1069723 1033287 1013559 1012529 1026379 
3892.009 1047535 1068461 1084836 1096296 1104601 1111477 1117058 1120480 
3895.866 1120015 1114666 1105797 1096595 1092410 1098422 1116659 1144133 
3899.724 1172771 1193204 1199184 1190778 1174697 1162505 1166192 1193270 
3903.581 1243410 1307613 1371360 1420424 1446287 1447584 1427305 1391504 
3907.439 1346000 1296579 1247630 1203105 1166591 1140046 1125031 1121011 
3911.296 1126526 1138219 1152305 1165760 1175595 1181043 1182206 1180379 
3915.154 1177189 1174830 1174697 1177654 1182837 1188718 1193303 1194765 
3919.011 1193137 1189349 1186226 1186691 1193934 1209052 1231746 1259593 
3922.868 1288304 1313030 1328518 1331708 1321837 1301631 1275012 1246035 
3926.726 1217957 1192074 1169581 1150744 1136425 1127722 1125961 1132240 
3930.583 1146857 1168917 1195463 1221446 1241050 1248461 1239655 1214667 
3934.441 1176359 1131276 1086896 1051787 1032523 1032324 1050226 1081482 
3938.298 1118520 1154166 1183502 1205298 1221246 1234405 1247597 1262085 
3942.156 1276540 1288471 1295782 1298008 1296114 1292326 1287440 1281027 
3946.013 1270592 1253179 1226928 1192174 1153435 1117722 1092111 1081980 
3949.870 1088457 1108189 1134565 1160877 1181243 1192007 1192539 1184465 
3953.728 1171010 1155328 1141143 1130479 1123802 1120048 1117656 1114434 
3957.585 1109849 1104900 1102973 1109052 1127722 1161275 1208521 1264212 
3961.443 1319943 1366574 1397819 1411282 1409421 1397021 1379637 1361289 
3965.300 1343407 1325759 1307812 1289999 1274613 1264178 1260955 1264776 
3969.157 1272320 1277670 1274879 1260623 1235402 1203802 1173069 1150976 
3973.015 1142571 1149448 1169448 1198486 1231414 1264378 1294486 1319577 
3976.872 1337757 1347030 1344770 1329914 1302761 1266438 1225201 1184897 
3980.730 1151142 1127821 1117257 1120114 1136027 1163136 1198885 1239389 
3984.587 1279431 1313296 1335530 1342144 1331974 1307214 1272719 1233973 
3988.445 1197224 1166823 1145860 1135595 1136160 1146591 1164797 1187223 
3992.302 1208986 1224137 1227560 1216362 1190778 1155661 1119051 1089321 
3996.159 1073244 1073742 1088989 1113304 1139615 1161342 1174332 1177787 
4000.017 1173601 1165395 
##END=
