##TITLE=la_1 Sep 01 12:53:56 2026 (GMT+02:00)
##JCAMP-DX=5.01  $$ Nicolet v. 970
##DATATYPE=INFRARED SPECTRUM
##ORIGIN=Vojna akademija
##OWNER=Nicolet
##LONGDATE=2026/09/01
##TIME=12:54:27
##SPECTROMETER/DATA SYSTEM=Nicolet iS20
##DATA PROCESSING=
Ratio against background
%Transmittance->Absorbance
Truncated
ElementMultiply or ElementDivide
##COMMENTS=
Number of sample scans: 8
Collection length: 11,90 sec
Sample gain: 8,0
Background collected on: Tue Sep 01 12:38:26 2026 (GMT+02:00);
Number of background scans: 8
Background gain: 8,0
Sample spacing:  1,000
Number of scan points: 12415
Resolution points: 8286
Number of FFT points: 65536
Apodization: N-B strong;
Phase correction: Mertz;
Laser frequency: 15798,00 cm-1
Number of rejected sample scans: 0
Number of rejected background scans: 0
Bench serial number: BER2010005;
##RESOLUTION= 4,000
##XUNITS=1/CM
##YUNITS=ABSORBANCE
##FIRSTX=400.156891
##LASTX=4000.123047
##FIRSTY=0.000344
##MAXX=4000.123047
##MINX=400.156891
##MAXY=0.177325
##MINY=-0.008673
##XFACTOR=1.000000
##YFACTOR=1.000000E-009
##NPOINTS=7468
##DELTAX=0.482117
##ZPD=6100
##XYDATA=(X++(Y..Y))
400.157 344266 -411032 -834076 -1018240 -1175924 -1520606 -2167347 -3097891 
404.014 -4142085 -5027506 -5429261 -5114226 -4022999 -2320462 -322771 
407.389 1590925 3078934 3931768 4092522 3681376 2947611 2212519 1744726 
411.246 1677132 1992506 2535581 3068957 3338095 3179255 2545079 1514145 
415.103 223347 -1176056 -2574852 -3923977 -5212944 -6440187 -7547769 
418.477 -8368593 -8673093 -8306739 -7316802 -5914655 -4355818 -2867442 
421.852 -1611264 -710872 -229227 -154575 -384582 -741833 -1033479 -1105335 
425.709 -906726 -484315 46025 558966 943555 1139116 1148883 1024751 846736 
430.048 690365 607606 607838 665012 728532 750969 700952 570113 366484 
434.387 106605 -193492 -521713 -860433 -1174503 -1410476 -1491417 -1341346 
438.244 -905172 -170971 815099 1939884 3037391 3938689 4501011 4663315 
442.101 4469709 4054661 3585215 3186198 2898275 2668446 2394459 1982288 
445.958 1401044 711539 54376 -413812 -569366 -387329 59015 625092 1155528 
450.297 1525416 1665291 1581747 1345933 1071716 862307 777124 810883 906764 
454.636 975301 926055 692921 249106 -369552 -1051626 -1621564 -1912982 
458.493 -1839940 -1438415 -834374 -183192 382800 785224 988850 1001636 
462.350 853874 583219 215490 -236645 -756982 -1304877 -1795527 -2095534 
466.207 -2066483 -1603308 -703362 519255 1841446 3016904 3858585 4276289 
470.064 4301018 4060915 3737552 3488241 3401473 3455776 3540918 3508583 
473.921 3249521 2733594 2004656 1158152 310875 -402127 -855869 -949246 
477.778 -625153 102793 1144996 2343354 3512524 4444468 4959315 4946111 
481.635 4382678 3354656 2031886 640356 -609172 -1551609 -2099393 -2259123 
485.492 -2118979 -1818361 -1494322 -1258097 -1161086 -1194230 -1297477 
488.866 -1384615 -1373253 -1209066 -887383 -457075 -6626 369369 590120 
492.723 617560 465716 190927 -129932 -422088 -617808 -670049 -550305 -257540 
497.062 174949 676693 1147123 1483689 1596612 1435117 999942 349638 -414441 
501.401 -1181442 -1861847 -2425517 -2901015 -3343771 -3791266 -4234364 
504.776 -4607807 -4816560 -4759834 -4377895 -3680528 -2758443 -1758140 
508.151 -831265 -99092 388836 647258 735635 723653 674337 624860 583119 
512.490 535909 462399 348113 194341 22531 -130561 -219391 -208495 -87961 
516.829 116912 352556 554421 676826 717712 725346 781572 967231 1335298 
521.168 1879547 2537614 3199583 3747612 4077605 4126372 3887602 3413328 
525.025 2800486 2159803 1601434 1199982 983869 943057 1042122 1236830 
528.882 1483423 1747288 1999696 2219079 2393426 2514618 2578276 2579609 
532.739 2510285 2361809 2134096 1845272 1536323 1267867 1107491 1101346 
536.596 1260988 1551619 1906603 2240627 2482892 2601808 2613175 2572810 
540.453 2552578 2617309 2796217 3074263 3396163 3690265 3883825 3926118 
544.310 3800588 3522278 3132763 2685483 2238096 1833726 1497587 1237229 
548.167 1046772 918319 848728 841425 907195 1055839 1289069 1596512 1955094 
552.506 2333160 2693784 3005060 3241876 3387848 3435603 3381069 3221347 
556.363 2956017 2590075 2140490 1637918 1127024 656251 266578 -13319 -173985 
560.702 -221047 -171865 -47743 128711 335545 552895 761291 944053 1089686 
565.041 1195263 1268166 1321771 1371128 1423249 1470989 1491868 1457524 
568.898 1341347 1133170 846637 518890 202032 -51189 -195844 -208495 -87597 
573.237 147040 463295 825125 1199649 1564587 1908866 2230769 2532181 2813392 
577.576 3068089 3281703 3435036 3511355 3503672 3421143 3287913 3136534 
581.433 2994450 2869956 2749399 2602942 2403222 2137693 1823810 1505600 
585.290 1244174 1090583 1069490 1169116 1348094 1549723 1721207 1832561 
589.147 1880445 1885703 1878282 1887201 1925706 1987414 2047765 2075897 
593.004 2041973 1926238 1723768 1445689 1118221 779813 477292 255306 142466 
597.343 146079 246852 408436 586669 748347 882227 1001769 1134532 1307945 
601.682 1528808 1775533 1998864 2137959 2143720 1994570 1709464 1341314 
605.539 964375 644968 426843 320856 307493 347814 400576 439712 457822 
609.878 466180 485452 533188 613346 713232 804643 856962 848562 776693 
614.217 662191 546757 480477 501740 626287 835017 1081880 1302595 1443661 
618.556 1477073 1410218 1280694 1143269 1049395 1028504 1082412 1187090 
622.413 1307148 1406861 1465170 1480963 1467232 1440935 1411980 1375914 
626.270 1314692 1204367 1027475 783796 496034 207369 -32138 -171898 -181437 
630.609 -57086 174684 469033 772046 1037339 1240220 1378640 1471587 1546398 
634.948 1627475 1724899 1830964 1923243 1976030 1969473 1895321 1757934 
638.805 1572003 1355439 1125496 900555 701185 550340 474572 494276 615403 
643.144 820477 1070055 1308477 1477438 1538418 1482492 1334633 1142472 
647.001 962350 840329 797107 828046 906332 998614 1072380 1107657 1096529 
651.340 1040096 943355 815199 667401 515507 380346 284814 247581 280868 
655.679 385486 551634 760428 991673 1223739 1436081 1610546 1728459 1774302 
660.018 1739171 1623716 1440370 1210082 959461 712834 487045 291511 126855 
664.357 -9178 -118636 -199652 -245420 -245222 -189121 -75837 75088 223181 
668.696 328349 380843 397558 404125 418485 450094 502370 577744 677688 
673.035 803879 957103 1133303 1321970 1508658 1675103 1806275 1893424 
676.892 1936422 1940882 1916354 1871827 1814327 1753509 1703211 1680691 
680.749 1704242 1783385 1912427 2068306 2217115 2324365 2368539 2352248 
684.606 2300315 2251352 2236531 2267239 2326531 2378667 2379567 2301148 
688.463 2146117 1949369 1764321 1646000 1631366 1726563 1910363 2144552 
692.320 2393160 2634843 2870357 3118012 3403477 3743501 4135672 4554447 
696.177 4959315 5303814 5549573 5680813 5706159 5661107 5594713 5563836 
700.034 5612066 5759273 5997395 6293331 6600000 6866892 7060054 7166824 
703.890 7200342 7190168 7172685 7178108 7222038 7306438 7423144 7561492 
707.747 7713005 7874860 8049164 8241064 8457677 8707999 9006128 9369629 
711.604 9820055 10377322 11053161 11846590 12742048 13714105 14731666 
714.979 15769793 16814814 17863670 18919774 19984346 21049624 22097926 
718.354 23101588 24030982 24860396 25568834 26141556 26567562 26838978 
721.729 26953190 26915646 26740794 26449048 26062808 25602398 25081706 
725.104 24513076 23909306 23288476 22675546 22096984 21575008 21123118 
728.478 20740438 20415638 20130190 19866646 19612618 19363346 19119066 
731.853 18881496 18650042 18419712 18183874 17937492 17680242 17419660 
735.228 17170058 16951986 16788950 16700689 16700173 16786780 16942924 
738.603 17132384 17305308 17410106 17399796 17249140 16961494 16568728 
741.978 16119642 15667792 15255464 14901612 14605339 14351595 14124149 
745.352 13913725 13723612 13564382 13448304 13378556 13346779 13332668 
748.727 13314012 13271000 13195201 13090662 12968395 12839985 12711205 
752.102 12578641 12430707 12253785 12036462 11776044 11480500 11168022 
755.477 10861102 10584139 10356316 10185800 10070215 9996633 9947778 9906149 
759.334 9861507 9812091 9764713 9729133 9713174 9718019 9736418 9754547 
763.191 9756648 9731369 9672718 9580947 9460815 9317832 9157975 8989654 
767.048 8827449 8692247 8611429 8611936 8708169 8897451 9154050 9436536 
770.905 9693047 9878116 9962525 9938761 9818124 9625628 9391367 9142037 
774.762 8900867 8687311 8516198 8398455 8336167 8321779 8334512 8346739 
778.619 8330527 8265411 8146150 7983821 7801110 7620499 7458738 7319614 
782.475 7194750 7069417 6929676 6768306 6586913 6394365 6202809 6025314 
786.332 5873280 5756890 5685446 5666210 5702231 5789124 5914693 6057232 
790.189 6191045 6293466 6348804 6353276 6315554 6251312 6177400 6108440 
794.046 6053334 6014227 5990172 5977575 5974618 5981640 6003006 6045439 
797.903 6118925 6231413 6385790 6573423 6775004 6959843 7093631 7152205 
801.760 7129199 7044024 6937117 6862213 6864906 6968260 7165847 7423144 
805.617 7691318 7921695 8085485 8178326 8219249 8237923 8266256 8325730 
809.474 8423825 8556478 8712428 8876956 9035085 9173576 9280358 9346946 
813.331 9371153 9358592 9321691 9274909 9228403 9182138 9126303 9044288 
817.188 8923492 8763747 8581046 8401765 8253457 8152160 8092472 8048827 
821.045 7983754 7865987 7680829 7440199 7175616 6931056 6742124 6627856 
824.902 6583381 6585567 6599932 6592128 6539718 6432397 6272926 6073796 
828.759 5853768 5634455 5436825 5280134 5176276 5128362 5128530 5159410 
832.616 5198709 5225804 5230097 5214168 5193176 5187945 5218091 5293148 
836.473 5408173 5544270 5676382 5779857 5837547 5845607 5812328 5754875 
840.329 5693200 5646405 5627137 5640094 5683230 5749705 5831905 5922754 
844.186 6018863 6119798 6226707 6339727 6456072 6568142 6665101 6734553 
848.043 6767465 6759422 6713285 6636166 6538003 6428058 6313973 6202204 
851.900 6100073 6016074 5959838 5939280 5957856 6010262 6083541 6160562 
855.757 6224018 6263346 6277868 6275985 6269834 6270102 6280725 6296391 
859.614 6306611 6301501 6277834 6243916 6217799 6222169 6277969 6394701 
863.471 6566561 6770831 6975331 7142638 7240769 7251786 7173897 7025065 
867.328 6836799 6650128 6502417 6419786 6409866 6460645 6543250 6618503 
871.185 6650431 6613423 6499861 6321168 6105550 5890879 5714888 5612838 
875.042 5608005 5709214 5908412 6183281 6496026 6796981 7036784 7169552 
878.899 7166116 7024021 6768172 6447866 6123965 5861996 5709818 5691287 
882.756 5800071 6004181 6253799 6494311 6683203 6794053 6823369 6787221 
886.613 6716482 6646326 6605416 6611505 6665942 6756326 6860395 6956105 
890.470 7025099 7058943 7059549 7035706 6998295 6956341 6914290 6872244 
894.327 6828653 6782845 6736033 6692456 6655612 6625265 6596938 6560977 
898.183 6507832 6430076 6329035 6214001 6102593 6013655 5961148 5948652 
902.040 5966657 5993800 6002367 5968337 5876706 5728183 5538934 5338765 
905.897 5161824 5037847 4985860 5007813 5089774 5203806 5318204 5403241 
909.754 5439308 5421358 5359429 5274265 5189789 5128999 5107542 5130642 
913.611 5194819 5291069 5408173 5535310 5665069 5791105 5907874 6010531 
917.468 6093117 6150480 6180256 6182475 6160192 6118454 6063313 5998873 
921.325 5927927 5851988 5772335 5692999 5621364 5567226 5542693 5558097 
925.182 5617671 5718346 5848663 5990508 6120471 6217363 6263715 6251312 
929.039 6182845 6071680 5939985 5812831 5715996 5670070 5687124 5769011 
932.896 5908143 6089757 6293197 6497237 6681184 6826230 6917859 6946611 
936.753 6909072 6808458 6656185 6469490 6269094 6078803 5918455 5801145 
940.610 5731708 5706360 5714821 5744769 5786605 5835566 5892626 5963096 
944.467 6053267 6166578 6301333 6449245 6598116 6734485 6846560 6928430 
948.324 6979944 7005770 7011932 7004221 6985903 6957419 6920115 6876788 
952.181 6834442 6803612 6795702 6818219 6871571 6946779 7025738 7085919 
956.037 7108754 7083225 7012269 6911631 6808121 6730245 6701912 6736336 
959.894 6831817 6973041 7134689 7288714 7408246 7474143 7478323 7424290 
963.751 7326488 7204856 7083056 6980819 6910183 6873186 6862213 6862516 
967.608 6856759 6832760 6784427 6714328 6630816 6544562 6463303 6390834 
971.465 6327220 6271615 6225967 6195818 6188188 6207985 6251950 6307216 
975.322 6351024 6358656 6311822 6204758 6049302 5869821 5698404 5561554 
979.179 5473029 5431021 5421291 5423942 5421056 5404315 5373921 5335914 
983.036 5295194 5252130 5199782 5128429 5029970 4905092 4766549 4637962 
986.893 4545373 4512863 4551534 4656851 4807554 4971615 5115488 5209909 
990.750 5239755 5205047 5120651 5010629 4902947 4823937 4791272 4812881 
994.607 4886293 5000406 5137381 5276311 5398008 5486216 5531954 5535914 
998.464 5507994 5464741 5426156 5409985 5425049 5468667 5526350 5576992 
1002.321 5598942 5579543 5520678 5440583 5368117 5333298 5357819 5444509 
1006.178 5575415 5715391 5825894 5872474 5839763 5734529 5585081 5429746 
1010.035 5305156 5237072 5232176 5279699 5356544 5438603 5507356 5556016 
1013.891 5589075 5618376 5656542 5709651 5776129 5846514 5907370 5945259 
1017.748 5951776 5923762 5862399 5771865 5657449 5525477 5384153 5246328 
1021.605 5129267 5053065 5037747 5095674 5225871 5410454 5618142 5808600 
1025.463 5940489 5984327 5925441 5769951 5541283 5279632 5031512 4842231 
1029.320 4752646 4789229 4959952 5251292 5629420 6042482 6428798 6735629 
1033.177 6923245 6978024 6912910 6763999 6577292 6394600 6243984 6131627 
1037.035 6044027 5956109 5843961 5693502 5507658 5304552 5114147 4968197 
1040.892 4889376 4888170 4959215 5082030 5227448 5366272 5474941 5541988 
1044.750 5569776 5573300 5575448 5597365 5655166 5751853 5878856 6015940 
1048.607 6139861 6229833 6272926 6267548 6224253 6161402 6099065 6055552 
1052.464 6041743 6057702 6094462 6135727 6162578 6158579 6116270 6039122 
1056.322 5941766 5845775 5772906 5737953 5742822 5774988 5812159 5832040 
1060.179 5818204 5767768 5692025 5611529 5547190 5512725 5510745 5533061 
1064.037 5566219 5597969 5622136 5639658 5655501 5673528 5692730 5706931 
1067.894 5706965 5685848 5643887 5588370 5531753 5484974 5451655 5425317 
1071.752 5391097 5330446 5229493 5087058 4916553 4744138 4601627 4518420 
1075.609 4510887 4578321 4700090 4843236 4968800 5042875 5047568 4983446 
1079.466 4869472 4734122 4609296 4517516 4466930 4451665 4457256 4468102 
1083.324 4474295 4475434 4477710 4487987 4508376 4532482 4546947 4538141 
1087.181 4497663 4427631 4341411 4259559 4200103 4174075 4180833 4209839 
1091.039 4244468 4268794 4271873 4248918 4202412 4139485 4071149 4010449 
1094.896 3970321 3962597 3991454 4051015 4122024 4177621 4185717 4122358 
1098.754 3980353 3773046 3531230 3294523 3099891 2968194 2901743 2886267 
1102.611 2900576 2924093 2946543 2967994 2997620 3047434 3125755 3236602 
1106.468 3377663 3542688 3723215 3909534 4090014 4249755 4373976 4446845 
1110.326 4457323 4402492 4289607 4134200 3956076 3776522 3613046 3479590 
1114.183 3387715 3346075 3361969 3438275 3570649 3745038 3938455 4122325 
1118.041 4266519 4348004 4355601 4292485 4175012 4027538 3878710 3752558 
1121.898 3667910 3634496 3652806 3714593 3805200 3908231 4007439 4092020 
1125.755 4158787 4211880 4259994 4312129 4373072 4439849 4502015 4544770 
1129.613 4555384 4528163 4467433 4386828 4306507 4245640 4218337 4231520 
1133.470 4284421 4370963 4482497 4611406 4750838 4894570 5036305 5167390 
1137.328 5277821 5358255 5401195 5404818 5373250 5317566 5251728 5191969 
1141.185 5152905 5143316 5166284 5218292 5291002 5373451 5455916 5532155 
1145.043 5600688 5664767 5731003 5806988 5897899 6004350 6121445 6239513 
1148.900 6344736 6422510 6462293 6459401 6417735 6350149 6277834 6224723 
1152.757 6213967 6262371 6375300 6545100 6752523 6971425 7173493 7334104 
1156.615 7437772 7478896 7462648 7400899 7310617 7209303 7111684 7029476 
1160.472 6968496 6929036 6905840 6890624 6873692 6847503 6810107 6765109 
1164.330 6721025 6687240 6670619 6671393 6683102 6694273 6693903 6674656 
1168.187 6637377 6588663 6540055 6500903 6474434 6455332 6431859 6388783 
1172.045 6312561 6197263 6046144 5872306 5694510 5534101 5409850 5333365 
1175.902 5307638 5326455 5375732 5435919 5487122 5513162 5502491 5452024 
1179.759 5365635 5253505 5127524 5001814 4888806 4798475 4738912 4714728 
1183.617 4726385 4769530 4835329 4911426 4983782 5042004 5079381 5095305 
1187.474 5094031 5082164 5065502 5047267 5027087 5003121 4973459 4938805 
1191.332 4901707 4866992 4839182 4821559 4814925 4818912 4832850 4856069 
1195.189 4889108 4931868 4982407 5037411 5091517 5138488 5173258 5193142 
1199.047 5198139 5190996 5176242 5159511 5146669 5144456 5159008 5195188 
1202.904 5254478 5333935 5425820 5518430 5600855 5664632 5707468 5732212 
1206.761 5746850 5759341 5774719 5793758 5813402 5828749 5836271 5835163 
1210.619 5826364 5811085 5788553 5754707 5704044 5633380 5544170 5444442 
1214.476 5347252 5267591 5216750 5199078 5211485 5245490 5290264 5335948 
1218.334 5376302 5407771 5428672 5437094 5432229 5414514 5387809 5360570 
1222.191 5344133 5348795 5380865 5439140 5514537 5592028 5657549 5699713 
1226.048 5714048 5702735 5672387 5630661 5583973 5537726 5496383 5465815 
1229.906 5452360 5461184 5493564 5545310 5605420 5658724 5690682 5692428 
1233.763 5663826 5614416 5559775 5517994 5502725 5521282 5572931 5651003 
1237.621 5745004 5843592 5937869 6020845 6088178 6138516 6172896 6195280 
1241.478 6212018 6230740 6257799 6296962 6346888 6402469 6455332 6497405 
1245.336 6523876 6534606 6534504 6530805 6530973 6539416 6557109 6580925 
1249.193 6606324 6629033 6647302 6661130 6671594 6678862 6680377 6670282 
1253.050 6641044 6586577 6504872 6401392 6288188 6184088 6107768 6074838 
1256.908 6092983 6159016 6261026 6380612 6498919 6600067 6674623 6721294 
1260.765 6745086 6755181 6761374 6772244 6792606 6824311 6865949 6913617 
1264.623 6962604 7007723 7045573 7074468 7094945 7109798 7122125 7134420 
1268.480 7147489 7160558 7172483 7182724 7193335 7207989 7231942 7269138 
1272.338 7320625 7383542 7452165 7519990 7581419 7634055 7678266 7717018 
1276.195 7753345 7788561 7822397 7853908 7881912 7907151 7932290 7960839 
1280.052 7994891 8034448 8075763 8113909 8144361 8165293 8178562 8189332 
1283.910 8203885 8226138 8256867 8292800 8328770 8359608 8383118 8401360 
1287.767 8419805 8445278 8483355 8536980 8605548 8685688 8772775 8863057 
1291.625 8953528 9042731 9130566 9217301 9303004 9387811 9471009 9551308 
1295.482 9627118 9696367 9757394 9809684 9854660 9896081 9939269 9989784 
1299.339 10050750 10122034 10199504 10275358 10340504 10387571 10412243 
1302.715 10414788 10398464 10368974 10331240 10289202 10244655 10199165 
1306.090 10154424 10113250 10078693 10052886 10035762 10023284 10008568 
1309.465 9982800 9939133 9874591 9791723 9698909 9608554 9533764 9484182 
1313.323 9463490 9467554 9486417 9506940 9517507 9509548 9479373 9427732 
1317.180 9358592 9277651 9191614 9106914 9029436 8964588 8916931 8889774 
1321.037 8884870 8901509 8937461 8988267 9049159 9115068 9180311 9239639 
1324.895 9287602 9319356 9331441 9322978 9297351 9261302 9226135 9204915 
1328.752 9208975 9246950 9322131 9432438 9571089 9728556 9894386 10057464 
1332.610 10207917 10337959 10441702 10516615 10564550 10590760 10603764 
1335.985 10614594 10634391 10670724 10728593 10808413 10908259 11025019 
1339.360 11157483 11305357 11469715 11649722 11842539 12040891 12236198 
1342.735 12417001 12572195 12693634 12776750 12822990 12839644 12837801 
1346.111 12828792 12823058 12828314 12849234 12889270 12950814 13035960 
1349.486 13145097 13276638 13425714 13583287 13738762 13881190 14002036 
1352.861 14098170 14171902 14231130 14286770 14350636 14433077 14540852 
1356.236 14677820 14845310 15042364 15266721 15514372 15781235 16064078 
1359.612 16366094 16701000 17097400 17595250 18240954 19066056 20064742 
1362.987 21183754 22335132 23427180 24389304 25187556 25815858 26286702 
1366.362 26626212 26873980 27084610 27321874 27656934 28148624 28830688 
1369.737 29712578 30783912 32031220 33450142 35054816 36872184 38922476 
1373.113 41190864 43591260 45958440 48092712 49815504 51027868 51709312 
1376.488 51875772 51542768 50711936 49384204 47589204 45409024 42976932 
1379.863 40436020 37916624 35504832 33239226 31131692 29178326 27370994 
1383.238 25696318 24132022 22644828 21193566 19739300 18259374 16760606 
1386.614 15284396 13894669 12649796 11578289 10672082 9903539 9243972 
1389.989 8672742 8178089 7750478 7378251 7045237 6734855 6434986 6145405 
1393.846 5879258 5657247 5495309 5391936 5328568 5280705 5229259 5169033 
1397.704 5106335 5054172 5022361 5012841 5017970 5027556 5034361 5038081 
1401.561 5042440 5052094 5068922 5091014 5115421 5140566 5169737 5209808 
1405.419 5266451 5337960 5413910 5479639 5521115 5532323 5517423 5489202 
1409.276 5463667 5453534 5464237 5492591 5531686 5576656 5628077 5691287 
1413.133 5770488 5863541 5960443 6046413 6109684 6148061 6173837 6212085 
1416.991 6296324 6453818 6692624 6988564 7292859 7555592 7756718 7909142 
1420.848 8042143 8181398 8342989 8535965 8766080 9040025 9362520 9732556 
1424.706 10138416 10560374 10979752 11385215 11780980 12184774 12627213 
1428.081 13142399 13756785 14479356 15298707 16189488 17127388 18098022 
1431.456 19096592 20118912 21156758 22194684 23218946 24230670 25252028 
1434.831 26334686 27551290 28967846 30584636 32309178 33993008 35519788 
1438.207 36859924 38055704 39175656 40286364 41433704 42638580 43898460 
1441.582 45198548 46520352 47850336 49183256 50517304 51848704 53171572 
1444.957 54477412 55763716 57037184 58313596 59608448 60925160 62251116 
1448.332 63560120 64833024 66075452 67316768 68602848 69974288 71448536 
1451.708 73004352 74584560 76118152 77535040 78796000 79891944 80831256 
1455.083 81623240 82264152 82737976 83032472 83183496 83274040 83370576 
1458.458 83481192 83562880 83567176 83460432 83236392 82906696 82488016 
1461.833 81985768 81385472 80646544 79709176 78513008 77029192 75283368 
1465.209 73337120 71245272 69024152 66647148 64086028 61337748 58440908 
1468.584 55449560 52421996 49388840 46319808 43140808 39760008 36144000 
1471.959 32409094 28849280 25805236 23451834 21734450 20459502 19421656 
1475.334 18490620 17609776 16777896 16013365 15325720 14702737 14117544 
1478.710 13542470 12962113 12377214 11804915 11267100 10781238 10350616 
1482.085 9964730 9605946 9259474 8919671 8588041 8268553 7962425 7665485 
1485.942 7369185 7065241 6750975 6433170 6130418 5868881 5675811 5570918 
1489.800 5556520 5615154 5714418 5821092 5910259 5964709 5974686 5934511 
1493.657 5841241 5696188 5507155 5289459 5065100 4858582 4687697 4557460 
1497.515 4460603 4386092 4326351 4276791 4234263 4192408 4142328 4074795 
1501.372 3983229 3866173 3725220 3563634 3382171 3174549 2927462 2619675 
1505.229 2229137 1757002 1264644 890860 764943 879638 1109816 1338156 
1509.087 1512881 1625679 1690570 1727827 1755838 1785215 1818154 1847136 
1512.944 1859947 1842943 1783119 1670646 1500080 1275477 1014721 755350 
1516.802 542146 406015 350401 355574 393346 439248 480012 514047 551568 
1521.141 606743 684923 771813 842985 876384 861942 801755 707026 595926 
1525.481 490627 412350 371326 365423 381871 407143 432083 453842 472748 
1529.820 489367 501939 506948 500678 482434 458154 441901 449596 488007 
1534.160 545695 600505 630766 624130 576550 487774 358890 191059 -10867 
1538.500 -237870 -468792 -670446 -808446 -872866 -886325 -883018 -887350 
1542.357 -904511 -923192 -920547 -871015 -758835 -586275 -378590 -173256 
1546.214 -4340 109886 164674 166994 131363 78236 29424 1888 1358 20411 44700 
1551.518 60374 59811 41485 9045 -31178 -71629 -106280 -133774 -157755 
1555.858 -186173 -230617 -305852 -427119 -599709 -786386 -889830 -823064 
1559.715 -616881 -373061 -162889 -10470 84632 128347 129904 100772 55569 
1564.055 10072 -20145 -25943 -7455 27833 69388 109190 142433 169812 195468 
1568.877 227789 275033 341016 422167 509270 590949 656483 697136 704503 
1573.216 672080 596557 481372 341514 205214 114625 105147 182573 318468 
1577.556 472317 614408 731519 822602 891491 942492 979684 1007581 1031161 
1581.896 1055939 1086829 1126459 1173867 1224237 1271024 1308012 1332107 
1585.753 1344105 1347728 1347595 1346831 1346299 1345269 1343108 1341978 
1589.610 1345535 1359129 1385620 1424346 1469360 1511717 1543040 1558269 
1593.468 1559200 1552151 1546631 1550056 1564454 1586170 1607420 1620224 
1597.325 1619559 1604859 1579984 1551253 1525583 1509523 1508392 1525682 
1601.183 1563158 1620723 1695427 1781289 1869597 1950002 2012878 2051727 
1605.040 2063312 2047865 2007352 1945908 1869098 1784516 1702213 1632430 
1608.898 1582611 1555775 1549324 1555177 1562925 1562891 1548626 1517470 
1612.755 1470124 1408257 1332174 1239489 1127124 992869 842952 695509 576616 
1617.095 507213 489300 507678 539591 565535 573697 557407 515009 448037 
1621.434 362670 268700 181446 118404 91592 101998 139848 190628 240056 
1625.774 277553 296949 296186 278249 250764 224043 206374 201004 204783 
1630.113 210916 210153 193545 154432 86587 -14280 -151462 -323830 -522209 
1634.453 -721622 -875214 -928515 -855307 -685432 -483090 -306282 -183026 
1638.310 -113899 -86504 -83357 -87431 -86073 -75075 -57318 -42608 -41713 
1642.650 -63513 -112641 -189452 -291415 -413978 -551497 -692578 -817376 
1646.507 -899055 -913703 -858052 -752583 -626874 -504537 -401034 -325784 
1650.365 -285057 -286879 -341610 -460054 -636733 -824420 -934103 -910595 
1654.222 -787312 -626444 -467865 -325420 -202898 -101444 -21536 35421 68824 
1658.562 79827 71376 47483 12657 -28229 -69045 -102703 -120756 -117311 
1662.901 -93129 -58046 -26440 -13253 -28461 -76400 -157358 -269230 -407556 
1667.241 -564833 -730653 -888110 -1014075 -1083984 -1080778 -1004455 -872833 
1671.099 -715040 -559505 -427516 -333631 -283468 -275654 -299560 -336908 
1674.956 -365215 -368625 -348529 -320917 -305388 -314030 -350913 -412256 
1678.813 -488915 -568903 -642490 -706075 -764623 -828025 -907090 -1006306 
1682.671 -1117728 -1210652 -1235697 -1158244 -1000753 -829843 -698665 
1686.046 -623499 -594646 -594746 -604937 -609172 -594713 -555170 -492589 
1689.903 -416460 -341212 -279991 -243466 -237141 -262408 -318036 -402027 
1693.761 -510858 -637825 -772330 -896443 -991298 -1049378 -1079456 -1098923 
1697.618 -1120967 -1148397 -1171628 -1169910 -1116572 -998769 -838839 
1700.994 -684870 -573602 -516682 -508475 -538392 -596566 -673126 -756056 
1704.851 -829215 -877264 -891582 -875446 -842046 -807718 -785229 -780995 
1708.708 -794688 -820683 -851471 -879844 -902329 -921076 -942104 -973777 
1712.566 -1023099 -1093239 -1181938 -1281752 -1381511 -1470613 -1541241 
1715.941 -1587330 -1601757 -1572738 -1488874 -1349405 -1172487 -988290 
1719.316 -825445 -701774 -622870 -587565 -589187 -616253 -652912 -680999 
1723.174 -684440 -652879 -586606 -494873 -394414 -302176 -234658 -205283 
1727.031 -221775 -287806 -399644 -547493 -713386 -876537 -1018042 -1127280 
1730.889 -1205861 -1264242 -1316439 -1370413 -1419888 -1438779 -1393731 
1734.264 -1270685 -1098394 -927524 -799351 -730521 -722085 -767401 -854480 
1738.121 -966801 -1081770 -1177444 -1239728 -1269099 -1277490 -1281323 
1741.496 -1290408 -1305174 -1319478 -1324367 -1313994 -1288921 -1256181 
1744.872 -1225818 -1206885 -1203118 -1212932 -1229551 -1245444 -1253505 
1748.247 -1250036 -1235135 -1209066 -1169612 -1111052 -1026570 -914364 
1751.622 -782252 -647188 -527802 -441022 -397327 -399710 -445788 -525883 
1755.480 -624491 -717884 -782748 -803287 -779077 -724368 -659992 -606327 
1759.337 -576513 -577738 -609073 -662804 -723012 -771172 -793199 -784666 
1763.194 -751889 -707497 -665285 -635906 -627171 -641961 -679345 -733696 
1767.052 -795316 -853455 -899650 -931061 -950006 -961478 -968156 -967429 
1770.909 -950568 -907487 -832357 -732737 -627337 -535910 -468196 -421889 
1774.767 -387197 -353032 -312474 -265090 -217139 -179913 -164644 -177628 
1778.624 -218000 -276117 -336710 -382529 -402656 -396698 -375180 -351741 
1782.482 -337935 -338663 -352072 -370545 -384482 -387131 -376636 -356342 
1786.339 -332604 -312076 -299196 -296448 -305487 -327505 -363924 -415335 
1790.196 -480111 -552324 -620653 -671538 -695092 -692016 -672199 -650761 
1794.054 -639678 -644608 -666377 -702535 -749838 -805337 -868270 -938269 
1797.911 -1014472 -1094627 -1172487 -1239496 -1286807 -1307024 -1298468 
1801.286 -1264606 -1214254 -1156956 -1102427 -1058468 -1030338 -1020091 
1804.662 -1025876 -1041280 -1055229 -1055162 -1030735 -978273 -904180 
1808.037 -824420 -761216 -734424 -754072 -815623 -900675 -981777 -1034503 
1811.894 -1047891 -1027231 -989844 -955759 -941179 -951857 -984455 -1027859 
1815.752 -1068979 -1096246 -1103352 -1089206 -1057278 -1012819 -961015 
1819.127 -908049 -861094 -827760 -816086 -830769 -871279 -930334 -996389 
1822.984 -1054567 -1091421 -1100047 -1082530 -1050337 -1019794 -1006769 
1826.360 -1020818 -1065409 -1139342 -1238109 -1353534 -1469292 -1561744 
1829.735 -1603671 -1576700 -1482072 -1340124 -1181012 -1031561 -912083 
1833.110 -832059 -789694 -773156 -764524 -744347 -698202 -623234 -527868 
1836.968 -429800 -348662 -301348 -294892 -327340 -389249 -468759 -556593 
1840.825 -645931 -734192 -821245 -907685 -992819 -1073143 -1141820 -1189637 
1844.682 -1208702 -1196146 -1154576 -1091685 -1016554 -938534 -865955 
1848.058 -804676 -757644 -723772 -700683 -684804 -675243 -674383 -686689 
1851.915 -716594 -765384 -829149 -898493 -962106 -1009810 -1036388 -1041809 
1855.773 -1030272 -1006505 -974702 -937046 -893996 -846478 -798194 -754435 
1859.630 -722482 -707927 -711599 -728900 -752120 -772892 -786849 -796804 
1863.487 -811390 -841716 -898460 -986273 -1102261 -1237250 -1375301 -1498120 
1867.345 -1586703 -1623775 -1599083 -1513903 -1381544 -1221456 -1054435 
1870.720 -896807 -758173 -644740 -558413 -497818 -458862 -436321 -424107 
1874.578 -417288 -412985 -409674 -405073 -397492 -383191 -359984 -328201 
1878.435 -292938 -262938 -249063 -260554 -301348 -367367 -449197 -534619 
1882.292 -612845 -677823 -728800 -770411 -809108 -850314 -897732 -951957 
1886.150 -1011959 -1075688 -1141721 -1207249 -1267249 -1315151 -1342039 
1889.525 -1340223 -1308114 -1250003 -1175329 -1095519 -1019232 -950304 
1892.900 -888838 -832588 -779308 -731248 -694894 -678783 -691222 -735218 
1896.758 -806528 -894591 -985281 -1064517 -1119877 -1144629 -1138020 
1900.133 -1104872 -1053774 -996125 -943923 -908413 -898361 -917836 -963660 
1903.990 -1025545 -1087653 -1133526 -1148165 -1124834 -1066434 -986339 
1907.366 -901965 -832787 -792637 -786056 -809008 -851802 -903155 -955263 
1911.223 -1006670 -1060021 -1121066 -1194593 -1281323 -1377580 -1476359 
1914.598 -1566994 -1638498 -1681507 -1688306 -1653946 -1579374 -1472892 
1917.974 -1349405 -1228461 -1127775 -1055956 -1016389 -1006637 -1024950 
1921.349 -1069375 -1139144 -1229452 -1330577 -1426824 -1499011 -1530115 
1924.724 -1511658 -1444822 -1341973 -1224067 -1116010 -1040552 -1011331 
1928.099 -1030239 -1088347 -1169513 -1254794 -1328232 -1380487 -1407636 
1931.474 -1411136 -1395911 -1370115 -1343691 -1330610 -1347027 -1405158 
1934.850 -1511790 -1662627 -1840302 -2015102 -2152412 -2220523 -2199293 
1938.225 -2090390 -1914796 -1709363 -1513771 -1366746 -1294273 -1305703 
1941.600 -1388017 -1508587 -1628958 -1713323 -1744709 -1727515 -1682233 
1944.975 -1633843 -1606213 -1612684 -1652790 -1714973 -1780315 -1828622 
1948.351 -1843008 -1813247 -1737415 -1619253 -1467641 -1292059 -1104707 
1951.726 -915918 -734424 -564766 -407291 -257275 -110057 34825 169447 279940 
1956.066 346853 355408 300795 190231 38536 -139140 -336908 -559207 -816350 
1960.405 -1114655 -1445648 -1779523 -2071726 -2279263 -2376947 -2371510 
1963.780 -2302565 -2231171 -2219798 -2303785 -2478695 -2699735 -2902661 
1967.156 -3023798 -3029260 -2926555 -2752978 -2547446 -2336116 -2120364 
1970.531 -1885931 -1621267 -1329883 -1033446 -765648 -552092 -391070 -254891 
1974.388 -101146 104484 365688 643342 869843 971316 905170 674967 333191 
1978.728 -47511 -391567 -655360 -837086 -965776 -1079027 -1207050 -1354558 
1982.585 -1502214 -1613641 -1651008 -1590202 -1427385 -1179724 -878256 
1985.961 -569730 -310984 -156629 -160372 -352899 -733498 -1262756 -1867884 
1989.818 -2443639 -2867541 -3038966 -2897625 -2457016 -1804074 -1081968 
1993.193 -445060 -17693 124502 -27169 -426225 -984455 -1601823 -2181524 
1997.051 -2644939 -2946992 -3073217 -3039690 -2875704 -2623071 -2318616 
2000.426 -1994159 -1681804 -1415100 -1229122 -1158608 -1224496 -1424974 
2003.801 -1728274 -2082081 -2412634 -2649450 -2745504 -2689758 -2510519 
2007.176 -2265123 -2021896 -1833110 -1729396 -1715535 -1777972 -1895927 
2010.552 -2049104 -2220457 -2395302 -2556373 -2679714 -2737964 -2709054 
2013.927 -2585590 -2380967 -2132267 -1890780 -1714511 -1648961 -1716789 
2017.302 -1902327 -2161215 -2420839 -2606043 -2659659 -2548039 -2271023 
2020.677 -1864684 -1394623 -936054 -564005 -332935 -264229 -351807 -563641 
2024.535 -852992 -1165944 -1454531 -1683817 -1835716 -1913873 -1934754 
2027.910 -1929443 -1929179 -1958702 -2024996 -2115022 -2191645 -2207996 
2031.285 -2124024 -1915720 -1589443 -1182466 -754865 -365083 -61691 128711 
2035.143 203225 171071 53083 -124400 -329757 -531277 -698665 -811753 -868898 
2039.482 -889631 -912975 -985381 -1137227 -1367275 -1638861 -1884611 
2042.858 -2030965 -2032516 -1886030 -1638234 -1369224 -1166407 -1086794 
2046.233 -1143275 -1301474 -1500233 -1678833 -1798827 -1857063 -1879135 
2049.608 -1898005 -1930630 -1973215 -2000755 -1983604 -1901931 -1759460 
2052.983 -1582180 -1411962 -1288260 -1234144 -1247195 -1302697 -1358753 
2056.358 -1374079 -1322451 -1196212 -1008488 -787941 -572212 -395010 -280786 
2060.216 -238499 -259494 -321579 -392924 -443769 -448204 -394182 -281713 
2064.073 -124996 53680 230873 381938 487509 533022 509768 415533 259483 
2068.413 61733 -149905 -340848 -479284 -548783 -550570 -504901 -445788 
2072.270 -408085 -413911 -467667 -553350 -643218 -706538 -720994 -677327 
2076.128 -581477 -450091 -302143 -159742 -42674 33599 56033 19218 -73253 
2080.467 -206376 -358461 -501591 -612382 -680172 -708787 -716098 -724732 
2084.325 -755064 -815259 -900014 -993976 -1079952 -1147571 -1195882 -1232955 
2088.182 -1268769 -1308213 -1345574 -1365194 -1348216 -1279671 -1155006 
2091.557 -983496 -783377 -577341 -384846 -218066 -81899 22697 97193 141306 
2095.897 153139 132722 84533 18986 -48339 -101345 -129137 -129104 -107407 
2100.237 -77858 -56324 -53475 -74379 -114959 -166002 -215483 -254759 -279495 
2104.576 -292044 -299825 -311745 -336081 -377464 -434004 -498745 -561358 
2108.434 -609966 -635608 -635906 -615326 -585812 -563542 -565825 -604374 
2112.291 -683216 -794952 -921638 -1038239 -1119249 -1145819 -1111218 
2115.666 -1024388 -907123 -791248 -707663 -676533 -703462 -776762 -870750 
2119.524 -954040 -1002736 -1004455 -962768 -894690 -822667 -764259 -726948 
2123.381 -705744 -686094 -652151 -593257 -508508 -409078 -314361 -243731 
2127.239 -214059 -234889 -305454 -418546 -562185 -722747 -885167 -1035396 
2131.096 -1159170 -1243230 -1278547 -1259485 -1188183 -1072152 -924713 
2134.471 -761249 -598551 -452805 -337206 -262706 -237870 -265620 -346278 
2138.329 -473757 -638024 -824354 -1016951 -1200541 -1363047 -1497129 
2141.704 -1600436 -1675169 -1729561 -1773815 -1821660 -1884446 -1967673 
2145.079 -2066054 -2165864 -2243005 -2273033 -2242741 -2154621 -2031493 
2148.454 -1911003 -1836805 -1836805 -1917699 -2052962 -2191612 -2268616 
2151.830 -2226424 -2032812 -1695336 -1260575 -801269 -407357 -155867 -85676 
2155.687 -186637 -400439 -628429 -756718 -699095 -415831 63091 650045 
2159.544 1225599 1685215 1966843 2057520 1987314 1806808 1574530 1337724 
2163.402 1125629 952354 820211 727735 669790 643243 639991 647855 652136 
2167.741 637602 591845 513715 410127 293733 179822 78866 -8349 -90347 
2172.081 -181370 -297011 -446251 -627800 -831232 -1035098 -1214980 -1348844 
2175.938 -1419756 -1420879 -1357300 -1245807 -1106525 -965776 -845122 
2179.314 -755560 -698499 -666013 -639744 -600404 -530350 -417354 -257010 
2183.171 -53938 180253 423725 647324 815132 892619 855003 698795 445317 
2187.511 140444 -152456 -371770 -473823 -445225 -306481 -107109 91757 239625 
2191.850 302785 272082 160100 -9741 -215417 -438274 -663664 -877694 -1059988 
2196.190 -1183226 -1224628 -1170438 -1029082 -831431 -626146 -461444 -372233 
2200.047 -366970 -425199 -507846 -569928 -580484 -531939 -440161 -331942 
2203.905 -237771 -173620 -136921 -109229 -66561 8946 120889 253814 380213 
2208.244 466479 485287 423560 283056 79860 -159776 -404212 -624855 -793299 
2212.584 -888573 -899121 -823957 -671703 -463463 -228664 2352 198916 337568 
2216.924 407905 409199 350931 248974 122182 -13518 -144208 -261282 -362467 
2221.263 -449561 -527173 -600900 -672464 -736706 -782913 -794126 -751855 
2225.121 -645435 -474551 -252474 -5732 231005 428601 566364 639792 658375 
2229.460 636805 588494 516900 413543 262434 51758 -220285 -536605 -861921 
2233.800 -1148231 -1350892 -1435245 -1388215 -1220763 -962768 -653805 
2237.175 -332935 -33298 223148 425516 571440 665609 716219 734141 729494 
2241.515 710245 679248 635047 570744 478719 354546 200706 27833 -146891 
2245.854 -303468 -427616 -513472 -565329 -595341 -615856 -634252 -648942 
2249.712 -648875 -619562 -551596 -445126 -312838 -178622 -70702 -10205 -6626 
2254.051 -51619 -121684 -183391 -202699 -155635 -33132 154829 384823 620911 
2258.391 827349 976131 1052019 1055507 1003031 920145 832395 760993 715256 
2262.730 691527 677224 657545 622404 572369 518923 480875 478321 522373 
2267.070 612749 733710 862008 969357 1033619 1044081 1003463 925325 829872 
2271.410 738389 666206 621807 605283 609796 624959 639725 645101 637004 
2275.749 617294 592973 576019 579934 614474 683595 782004 894877 1000274 
2280.089 1076333 1104734 1077961 1000208 887506 762221 647590 562649 518525 
2284.428 517165 554288 620181 704802 797771 889797 972810 1038867 1081913 
2288.768 1097824 1086531 1052019 1001935 945215 889831 840462 797406 757972 
2293.108 718243 676859 635810 601666 582555 586968 618389 675631 751666 
2297.447 835615 917123 986824 1038867 1071151 1083807 1077396 1054278 
2301.305 1018408 975301 934323 907362 905901 938906 1009806 1114068 1240486 
2305.644 1375316 1503671 1615502 1706670 1779126 1838484 1891993 1945342 
2309.502 2001560 2061281 2122642 2181981 2234366 2272102 2286958 2269871 
2313.359 2215150 2122143 2000129 1866602 1744593 1658606 1628040 1660934 
2317.217 1754141 1894555 2063412 2241060 2414383 2575109 2721458 2854114 
2321.074 2972298 3072327 3149017 3196846 3213602 3201586 3167707 3119747 
2324.931 3065386 3010298 2957719 2911417 2875960 2856682 2859950 2890203 
2328.789 2947144 3025513 3115042 3203188 3278398 3334756 3371653 3394393 
2332.646 3411458 3431596 3461387 3503773 3557554 3617423 3675528 3720943 
2336.504 3743668 3737753 3703799 3650066 3593167 3554113 3550405 3592565 
2340.361 3678703 3794571 3915285 4015331 4071852 4071116 4009345 3890678 
2344.219 3724184 3522077 3298329 3068823 2849678 2656712 2501787 2391827 
2348.076 2329829 2314205 2341854 2408053 2508086 2636743 2786880 2950079 
2351.933 3115008 3268750 3399970 3500733 3569848 3612478 3639942 3665370 
2355.791 3698753 3745807 3806237 3874899 3945878 4014997 4080347 4140890 
2359.648 4197260 4247279 4289005 4320528 4341311 4351318 4350849 4336759 
2363.506 4302022 4236773 4131958 3983329 3795574 3581507 3357060 3138270 
2367.363 2935034 2748166 2574376 2410285 2257647 2125106 2026426 1974698 
2371.220 1976130 2026460 2109823 2204093 2287091 2339756 2351782 2320701 
2375.078 2249986 2146650 2019802 1880645 1740601 1611577 1504835 1426274 
2378.935 1376745 1350952 1338954 1329348 1313994 1289368 1257831 1224968 
2382.793 1196759 1176724 1164996 1157986 1150677 1139482 1122606 1100482 
2386.650 1074705 1046307 1015452 982241 947440 913737 886809 872964 876317 
2390.990 897733 932796 974072 1011931 1039298 1052484 1051853 1040062 
2394.847 1019902 992570 958099 916160 868582 820444 779381 753193 747119 
2399.187 760993 789340 823697 855401 879239 895608 909088 925325 948967 
2403.526 980515 1016083 1049263 1074207 1088258 1092609 1092410 1093240 
2407.384 1098921 1109816 1121443 1126227 1116460 1086132 1033519 962250 
2411.241 881032 801323 734838 691461 675830 687578 720600 765905 813539 
2415.581 855169 886178 905602 915397 918385 917090 912740 905104 893881 
2419.920 879704 863934 849193 837972 832262 832461 838603 850123 866324 
2424.260 886710 909553 931401 947174 950462 935552 900256 847102 782834 
2428.600 717978 663618 627448 613280 620048 642878 675465 712070 748048 
2432.939 780012 805638 822834 830237 828146 818386 804543 791132 781174 
2437.279 775631 772378 766901 754553 733245 703873 671018 640688 619385 
2441.618 610061 613213 625557 643011 661328 677423 690233 699658 706727 
2445.958 712535 718642 727005 739817 759731 788643 827614 875620 930937 
2450.298 989548 1047037 1098489 1138585 1162073 1164863 1145196 1104800 
2454.155 1049562 989514 935220 896371 878310 880202 896205 918916 942260 
2458.495 964608 989049 1021762 1067564 1126924 1193536 1255173 1299238 
2462.352 1315556 1301265 1261985 1209584 1157521 1116859 1092809 1084172 
2466.209 1084969 1087461 1085202 1075004 1056603 1031859 1004193 977293 
2470.067 954646 940002 936382 945746 967364 998149 1031593 1060223 1078027 
2474.406 1081017 1069059 1044912 1013127 977825 942359 909022 879903 857825 
2478.746 846902 850422 870441 905104 949034 993666 1030563 1053547 1061419 
2483.086 1057932 1049860 1045044 1049196 1063910 1086198 1110680 1129150 
2486.943 1133303 1117457 1077695 1014422 931899 839632 750371 678618 637900 
2491.283 636175 674370 745127 835250 928878 1011466 1074705 1115530 1136924 
2495.622 1143701 1141408 1133070 1119815 1102110 1080419 1056337 1032357 
2499.480 1010470 991739 975201 960357 947539 939736 941961 959394 993998 
2503.819 1042919 1096761 1143601 1171873 1175827 1157853 1129117 1105166 
2507.677 1099618 1120081 1164398 1221546 1275111 1310837 1320109 1303725 
2511.534 1270127 1232444 1203337 1190645 1194898 1209783 1225267 1228889 
2515.392 1211013 1166392 1094935 1002101 897998 795879 708486 648154 623201 
2519.731 636805 686914 766702 866357 974504 1081349 1179349 1263846 1333736 
2524.071 1390839 1439140 1484021 1531235 1584873 1647031 1715319 1783418 
2527.928 1842677 1882642 1895121 1876252 1827504 1755206 1669715 1583143 
2531.786 1505267 1444492 1405830 1390473 1396889 1420091 1452304 1483257 
2535.643 1502973 1502773 1478702 1433854 1377244 1322801 1284051 1270758 
2539.500 1286111 1324995 1376679 1428568 1470822 1497587 1508725 1506963 
2543.358 1496057 1477704 1452537 1420590 1383759 1347396 1319444 1307779 
2547.215 1317783 1348925 1394628 1443395 1484587 1511185 1523255 1527012 
2551.073 1533264 1551419 1586735 1637386 1695793 1751846 1794996 1817921 
2554.930 1818187 1795994 1753808 1695460 1625213 1548859 1474479 1412545 
2558.788 1373056 1363981 1387947 1440137 1508725 1579153 1637452 1674338 
2562.645 1688841 1686512 1677598 1672243 1677864 1696558 1726596 1763390 
2566.502 1802549 1841878 1880778 1919682 1958323 1994404 2024163 2043737 
2570.360 2050994 2047266 2037645 2029256 2028091 2037778 2056954 2080058 
2574.217 2099435 2108791 2105628 2092677 2077695 2070969 2081523 2114718 
2578.075 2169726 2240594 2318069 2391927 2454268 2501054 2532814 2552345 
2581.932 2564477 2573443 2581409 2589542 2597608 2605308 2612009 2617842 
2585.790 2621742 2621776 2615342 2599375 2572276 2535281 2493223 2454034 
2589.647 2426378 2417382 2429844 2460832 2501887 2541913 2571076 2582842 
2593.504 2576776 2557978 2535681 2518417 2512985 2521583 2542013 2569076 
2597.362 2597075 2621342 2639777 2652411 2660679 2666413 2670847 2674548 
2601.219 2677581 2680549 2683949 2688617 2694785 2702186 2709121 2713522 
2605.077 2714256 2711222 2706954 2705820 2713155 2732961 2766839 2811291 
2608.934 2858983 2899442 2921958 2918789 2887667 2833235 2766005 2699852 
2612.792 2647544 2618775 2616175 2635676 2668813 2706087 2739696 2766105 
2616.649 2786613 2805455 2826899 2853813 2885633 2919723 2952915 2983040 
2620.506 3010332 3037358 3067022 3099958 3134398 3165337 3186632 3193808 
2624.364 3185831 3166773 3144110 3125955 3118146 3122250 3135066 3149450 
2628.221 3157861 3155358 3140673 3117111 3090614 3068423 3055977 3056043 
2632.079 3067889 3089179 3115543 3142809 3167206 3186065 3198047 3203054 
2635.936 3203255 3202053 3203789 3213135 3233364 3265178 3305574 3349180 
2639.793 3388215 3414497 3422879 3411324 3382305 3342135 3299932 3265111 
2643.651 3245415 3245448 3266179 3305207 3357361 3416033 3475081 3528324 
2647.508 3571785 3602421 3619160 3622267 3614115 3598546 3580237 3564736 
2651.366 3556552 3558522 3570583 3590293 3613079 3633761 3648730 3656248 
2655.223 3657351 3655179 3653742 3656415 3664835 3678536 3695645 3713657 
2659.081 3729999 3743334 3753193 3760212 3765092 3769136 3773681 3779731 
2662.938 3787886 3798649 3810883 3822849 3832109 3836421 3834816 3828566 
2666.795 3821145 3817501 3822215 3838393 3865304 3899304 3933808 3961861 
2670.653 3978146 3980386 3969585 3949890 3927088 3906024 3890311 3881284 
2674.510 3878241 3878877 3880649 3881117 3878543 3872692 3864267 3855442 
2678.368 3848890 3847452 3852901 3865371 3882989 3901978 3918528 3929027 
2682.225 3932069 3928793 3922340 3916689 3915553 3920768 3931969 3946681 
2686.083 3961794 3974534 3983596 3989047 3991990 3994096 3996136 3997474 
2689.940 3996638 3991555 3980152 3961694 3936550 3906793 3875667 3846282 
2693.797 3821546 3803195 3791630 3785848 3784143 3784878 3786650 3788923 
2697.655 3791964 3796476 3803295 3812588 3824220 3837324 3851063 3864970 
2701.512 3878576 3891648 3903884 3914249 3921437 3924045 3921437 3914082 
2705.370 3903984 3894021 3887803 3887803 3895392 3909802 3929261 3951228 
2709.227 3973030 3992993 4010582 4026066 4040447 4055631 4073056 4094964 
2713.084 4123462 4159556 4203416 4253703 4307343 4360253 4408651 4449858 
2716.942 4483435 4511155 4536232 4561981 4590343 4621251 4652296 4680027 
2720.799 4700794 4712919 4716704 4714694 4710407 4707459 4707895 4712182 
2724.657 4718814 4725279 4728729 4727054 4718814 4703909 4682573 4655813 
2728.514 4624332 4589338 4552070 4514101 4477576 4444635 4417321 4396635 
2732.372 4383012 4375080 4370930 4368185 4364537 4358580 4349477 4336993 
2736.229 4321097 4301186 4276457 4245940 4209605 4168388 4124934 4083290 
2740.086 4047604 4021217 4005399 3998879 3998276 3999480 3999146 3996069 
2743.944 3991354 3987542 3987776 3993795 4004831 4017338 4026869 4028708 
2747.801 4020247 4002222 3978313 3954672 3937586 3931534 3938556 3956712 
2751.659 3981857 4008342 4031618 4049042 4060982 4069811 4079277 4092622 
2755.516 4111521 4134735 4159556 4181836 4198029 4206360 4207129 4202579 
2759.374 4196223 4191773 4191773 4197560 4209237 4226133 4247111 4270835 
2763.231 4295598 4319323 4339671 4354129 4361124 4360990 4355367 4348473 
2767.088 4344691 4348105 4361157 4383782 4413371 4446343 4478815 4507840 
2770.946 4531779 4550697 4565932 4579192 4592620 4608459 4628853 4655645 
2774.803 4690344 4733050 4782662 4836602 4891319 4943027 4989245 5028864 
2778.661 5062519 5092489 5122092 5154816 5194048 5242639 5302539 5374625 
2782.518 5457695 5548969 5643551 5735167 5817667 5886849 5941463 5983924 
2786.375 6019468 6055317 6097587 6150648 6215547 6290979 6373854 6460881 
2790.233 6549507 6637545 6723717 6806405 6883689 6953816 7015737 7069888 
2794.090 7118926 7166790 7218399 7277528 7346572 7425537 7513315 7607753 
2797.948 7707676 7812546 7923281 8040051 8162727 8289389 8416697 8540730 
2801.805 8657835 8766418 8867521 8964757 9062861 9167349 9282288 9409311 
2805.663 9547515 9693962 9844526 9995277 10143944 10290151 10435593 10583052 
2809.520 10736166 10896843 11066008 11242754 11425355 11611945 11801544 
2812.895 11994292 12191827 12396510 12610738 12836505 13074954 13326757 
2816.271 13592347 13872021 14166288 14475485 14799266 15136189 15483365 
2819.646 15837658 16195679 16555166 16916812 17283514 17661332 18057262 
2823.021 18479142 18933132 19422940 19949376 20510666 21103848 21726162 
2826.396 22376924 23057702 23773702 24531448 25339198 26204692 27134514 
2829.771 28134166 29208056 30360612 31597008 32923068 34345376 35870848 
2833.147 37506180 39256996 41128608 43125692 45252492 47512828 49908640 
2836.522 52438968 55099400 57881500 60772920 63759768 66827856 69963616 
2839.897 73156584 76397296 79677016 82987512 86319112 89660976 93002504 
2843.272 96331168 99635288 102902416 106118696 109270536 112342928 115318544 
2846.648 118180648 120907200 123471880 125843704 127983448 129847720 
2849.541 131393624 132579920 133374736 133758056 133723440 133277088 
2852.434 132438256 131237520 129711792 127907160 125874072 123662256 
2855.327 121323528 118905384 116449768 113995968 111576704 109220040 
2858.220 106950488 104786176 102741568 100826664 99047984 97410288 95917256 
2861.595 94571184 93372944 92320024 91406392 90620872 89949096 89374280 
2864.970 88878784 88446952 88063320 87712952 87380616 87048048 86695016 
2868.346 86300512 85842944 85304504 84671984 83937168 83098432 82159456 
2871.721 81129064 80021192 78854200 77650752 76434192 75229936 74061816 
2875.096 72950216 71914208 70969656 70130528 69410176 68819232 68366128 
2878.471 68055632 67887728 67858560 67961304 68188192 68531064 68983296 
2881.847 69539736 70195104 70944800 71783512 72705440 73705800 74779744 
2885.222 75923032 77131080 78397696 79713952 81069560 82452520 83852120 
2888.597 85260592 86673656 88089824 89509488 90932256 92355848 93775560 
2891.972 95185624 96580904 97957984 99316400 100657856 101985200 103301904 
2895.348 104609920 105910136 107202632 108486904 109762024 111027632 
2898.241 112283544 113530960 114772392 116012496 117257760 118515048 
2901.134 119791488 121092304 122420400 123777240 125163408 126579496 
2904.027 128027544 129509720 131027696 132581624 134169384 135787648 
2906.920 137433888 139107392 140810912 142550176 144331152 146158784 
2909.813 148034512 149955296 151914624 153904064 155913360 157930816 
2912.706 159944208 161937280 163892000 165789488 167610192 169336960 
2915.599 170954400 172445984 173792976 174970768 175947120 176687856 
2918.492 177157280 177324560 177167040 176669920 175825360 174630784 
2921.385 173088896 171209344 169011728 166529024 163803776 160887920 
2924.278 157835344 154693456 151503056 148295600 145093136 141913440 
2927.171 138770112 135673568 132631184 129645768 126717120 123842984 
2930.064 121022248 118257552 115556568 112929776 110390408 107949408 
2932.958 105612680 103380392 101246928 99202552 97236504 95341384 93513992 
2936.333 91758240 90082968 88501584 87027960 85673080 84443160 83338616 
2939.708 82354904 81484912 80721512 80059920 79497640 79033944 78668224 
2943.083 78397536 78216992 78119520 78098152 78146656 78260512 78434968 
2946.458 78663024 78931728 79222304 79510936 79770688 79979128 80118928 
2949.834 80180816 80161808 80061320 79876488 79601152 79224536 78735024 
2953.209 78124840 77392696 76545160 75595056 74558440 73449528 72280080 
2956.584 71058464 69790248 68481328 67138096 65766932 64374224 62964164 
2959.959 61538020 60095420 58635792 57159092 55667476 54165116 52657208 
2963.335 51147988 49641176 48138760 46642296 45154648 43680360 42226468 
2966.710 40801304 39414468 38072448 36779460 35535184 34335732 33174488 
2970.085 32044452 30940296 29859704 28803318 27774046 26775328 25809528 
2973.460 24876570 23974638 23101868 22257142 21442428 20662004 19921762 
2976.836 19227040 18580180 17979382 17419142 16892144 16390558 15909452 
2980.211 15446558 15001992 14576931 14171731 13785651 13415941 13060237 
2983.586 12716561 12384646 12066066 11762903 11476179 11205658 10948999 
2986.961 10702273 10461355 10223657 9987513 9753327 9523366 9300770 9089184 
2990.819 8892952 8716518 8562966 8434399 8329682 8244913 8172721 8104423 
2994.676 8031950 7949635 7856405 7755436 7653614 7558828 7477547 7413369 
2998.534 7365714 7330363 7300002 7267824 7227057 7173628 7106666 7027725 
3002.391 6940820 6850532 6762013 6679131 6604743 6540593 6487046 6444436 
3006.249 6412691 6391641 6380276 6376779 6377653 6378359 6374459 6362085 
3010.106 6339289 6307183 6268489 6226673 6185029 6144767 6105584 6065800 
3013.963 6023701 5978112 5929102 5877344 5823141 5766728 5707267 5644290 
3017.821 5578603 5513497 5453434 5404181 5370130 5352183 5346715 5346413 
3021.678 5342321 5326052 5293316 5244551 5185430 5124540 5070196 5028830 
3025.536 5002752 4989546 4983748 4978955 4969135 4950434 4922216 4885891 
3029.393 4844643 4802194 4761323 4723470 4688669 4655947 4623997 4592318 
3033.250 4561277 4532650 4508209 4489427 4476069 4465993 4455649 4440853 
3037.108 4418024 4385891 4345829 4301889 4259057 4222854 4196523 4181034 
3040.965 4174242 4172269 4170529 4165143 4154238 4138013 4118645 4099078 
3044.823 4081885 4068841 4059543 4052320 4044895 4035062 4021585 4004496 
3048.680 3984800 3964135 3943304 3923108 3903516 3885062 3868446 3855576 
3052.538 3848790 3849525 3857548 3870151 3881852 3886098 3877439 3852835 
3056.395 3813657 3765158 3715428 3672153 3641178 3624873 3621398 3626678 
3060.252 3635231 3642682 3646124 3644854 3639909 3633326 3626778 3621198 
3064.110 3616687 3612645 3607633 3600183 3589759 3576095 3560427 3545127 
3067.967 3532633 3524950 3522979 3524883 3527255 3525451 3514729 3492249 
3071.825 3457145 3411959 3360032 3306242 3254662 3208061 3168174 3136134 
3075.682 3112172 3097221 3091815 3095686 3107433 3125054 3145112 3164303 
3079.540 3179656 3188968 3189769 3180657 3159897 3126389 3080136 3023310 
3083.397 2960021 2896140 2838005 2789615 2752634 2725425 2703786 2683882 
3087.254 2662479 2639843 2618275 2601508 2591909 2589809 2592675 2596008 
3091.112 2595342 2588542 2576443 2563344 2554578 2555111 2567043 2589075 
3094.969 2616375 2642944 2663779 2676214 2680582 2679882 2677815 2677015 
3098.827 2677848 2677781 2672881 2658979 2634009 2598742 2556878 2514218 
3102.684 2476827 2449003 2432243 2425046 2424179 2426312 2429410 2433842 
3106.542 2442372 2458766 2485425 2522816 2566944 2611175 2646911 2666046 
3110.399 2663546 2638677 2595375 2540680 2483825 2433908 2396825 2375635 
3114.256 2370372 2377601 2392593 2411185 2429777 2446670 2462265 2477094 
3118.114 2491623 2505453 2516884 2523016 2522183 2513651 2499388 2483459 
3121.971 2471129 2466564 2471429 2483559 2497888 2507819 2507253 2493423 
3125.829 2467463 2434675 2401922 2377301 2366474 2371471 2391161 2421680 
3129.686 2457500 2493123 2524383 2548212 2563844 2571776 2574143 2573543 
3133.543 2573110 2575276 2580742 2589342 2598909 2606442 2608375 2601708 
3137.401 2584009 2554478 2513618 2463398 2408319 2354214 2308443 2279030 
3141.258 2272702 2292954 2338590 2403821 2478193 2549012 2605609 2640177 
3145.116 2650211 2638443 2611275 2576009 2539147 2505053 2475361 2450736 
3148.973 2431076 2416582 2408053 2405987 2410019 2418415 2428377 2436807 
3152.831 2441339 2441172 2437274 2431909 2427944 2427611 2431810 2440373 
3156.688 2451302 2462098 2470163 2473928 2473162 2469496 2466297 2467663 
3160.545 2477260 2497122 2526016 2560177 2593075 2618509 2631009 2628909 
3164.403 2614342 2592109 2567943 2545946 2527949 2512951 2498688 2483092 
3168.260 2467463 2455301 2452135 2463098 2490623 2532814 2584276 2636810 
3172.118 2682582 2716289 2735562 2740830 2733828 2716456 2689317 2652778 
3175.975 2607475 2556278 2504853 2460366 2430143 2419281 2428877 2455201 
3179.833 2490923 2527882 2558311 2578176 2586709 2586742 2582842 2579709 
3183.690 2580443 2585842 2593542 2598642 2594675 2575809 2537814 2480226 
3187.547 2406820 2326664 2250419 2191139 2159137 2159603 2191471 2247488 
3191.405 2315538 2381099 2432642 2462032 2467163 2451535 2423113 2391561 
3195.262 2365974 2353015 2354447 2368972 2391028 2413784 2431110 2439506 
3199.120 2438807 2432709 2426445 2424546 2428911 2437607 2444871 2443938 
3202.977 2429410 2399957 2360377 2319369 2288024 2274967 2284060 2312074 
3206.834 2350183 2388062 2415483 2426878 2422047 2406054 2385564 2366674 
3210.692 2352748 2343287 2335225 2324332 2307576 2284160 2256381 2227139 
3214.549 2201162 2182081 2171924 2171458 2179616 2194435 2212852 2232035 
3218.407 2249120 2261910 2269871 2272702 2271636 2268205 2263576 2258113 
3222.264 2251952 2244857 2236664 2228571 2221810 2218180 2218946 2224741 
3226.122 2234533 2246989 2260778 2274667 2288290 2302114 2316271 2330961 
3229.979 2345419 2358278 2367440 2371238 2368239 2357579 2339722 2316071 
3233.836 2288890 2261777 2239062 2225241 2223709 2236065 2260811 2294119 
3237.694 2329362 2360410 2381632 2390728 2387762 2375536 2357212 2335758 
3241.551 2312507 2287591 2260378 2231302 2201962 2176020 2157638 2150579 
3245.409 2156406 2174022 2199930 2228338 2253783 2272302 2281062 2280329 
3249.266 2272002 2259179 2244391 2230003 2216715 2203860 2189940 2173889 
3253.124 2155141 2135262 2117282 2105329 2103231 2113453 2134962 2164231 
3256.981 2195734 2222943 2240661 2246556 2241027 2226706 2207323 2186676 
3260.838 2166929 2149114 2134163 2122409 2116183 2117615 2129102 2151311 
3264.696 2182613 2218813 2254516 2284426 2305711 2319102 2328496 2339189 
3268.553 2356579 2382798 2415783 2449036 2474394 2483459 2471429 2438707 
3272.411 2391727 2340355 2295418 2264641 2251385 2252518 2260611 2267073 
3276.268 2265174 2252018 2229337 2202395 2176919 2156406 2141955 2131166 
3280.125 2120944 2109257 2096639 2086950 2085319 2096172 2120944 2156806 
3283.983 2198565 2238596 2270703 2292087 2303046 2306144 2304579 2300115 
3287.840 2292187 2278664 2257214 2227339 2192104 2157772 2132165 2123408 
3291.698 2136993 2173689 2229903 2298050 2369472 2435241 2489624 2529248 
3295.555 2554545 2567377 2570543 2566510 2555511 2536447 2507586 2467263 
3299.413 2415849 2356546 2295052 2239395 2197066 2173422 2170259 2185644 
3303.270 2213984 2248754 2283893 2315538 2342521 2365441 2386397 2406520 
3307.127 2426511 2445004 2460499 2471196 2476194 2475994 2471929 2466231 
3310.985 2461532 2460366 2464931 2477027 2497255 2524916 2557578 2591275 
3314.842 2621709 2644677 2657879 2660712 2655111 2644244 2631009 2617375 
3318.700 2603175 2586976 2566177 2539847 2508386 2474594 2443572 2419514 
3322.557 2406420 2405387 2415016 2431776 2451902 2471795 2489690 2505086 
3326.415 2519117 2532014 2543779 2552445 2555745 2550712 2536247 2512885 
3330.272 2483525 2452968 2425812 2405154 2392627 2386496 2383098 2378734 
3334.129 2370438 2357645 2342654 2329595 2323166 2327397 2343520 2369838 
3337.987 2402755 2436741 2466830 2490223 2505986 2515451 2521483 2527115 
3341.844 2534314 2543446 2553712 2563177 2570543 2575043 2577109 2578209 
3345.702 2579509 2581776 2584242 2585409 2583242 2576709 2565777 2552412 
3349.559 2539113 2528315 2520916 2516284 2511918 2505120 2494522 2480393 
3353.417 2466064 2455101 2451769 2457966 2472662 2492456 2512118 2527182 
3357.274 2534514 2533548 2525216 2511952 2495589 2477660 2459033 2440839 
3361.131 2424079 2410285 2400490 2395092 2392793 2391761 2389528 2384464 
3364.989 2376835 2368273 2361110 2357312 2357679 2361177 2366040 2371404 
3368.846 2377401 2386363 2401156 2423213 2451769 2483325 2512285 2533448 
3372.704 2544179 2545679 2542513 2541046 2546512 2560744 2581576 2603609 
3376.561 2620409 2627576 2623909 2611108 2593275 2574076 2555444 2537014 
3380.418 2517484 2495755 2472529 2450869 2434841 2428577 2434642 2452102 
3384.276 2477794 2507652 2538147 2567810 2597142 2627942 2661446 2696952 
3388.133 2730860 2758069 2773108 2772374 2754868 2723791 2685283 2645744 
3391.991 2612009 2587342 2571410 2560811 2550078 2534481 2511552 2482326 
3395.848 2450702 2423146 2405987 2403322 2415683 2439873 2469396 2496389 
3399.706 2514551 2519183 2509519 2487857 2458866 2428444 2401889 2383831 
3403.563 2376601 2380966 2396358 2420381 2450369 2483792 2516784 2546646 
3407.420 2570476 2585809 2591775 2588842 2578876 2565210 2552245 2544213 
3411.278 2544612 2555111 2575109 2601942 2631876 2661346 2686916 2707554 
3415.135 2722524 2731994 2734661 2728593 2710755 2678281 2630109 2568210 
3418.993 2498088 2428311 2367773 2324599 2302580 2301281 2316504 2342854 
3422.850 2374836 2408586 2442305 2474628 2504387 2529482 2547179 2554911 
3426.708 2551178 2537047 2515951 2492490 2472062 2458700 2454268 2458766 
3430.565 2470496 2487491 2507819 2530082 2553312 2576876 2598875 2617342 
3434.422 2629743 2633443 2626776 2609042 2581342 2546412 2508152 2471196 
3438.280 2440040 2418715 2408919 2410652 2422513 2441339 2463331 2485825 
3442.137 2506186 2523549 2537480 2548179 2555211 2557911 2555844 2549412 
3445.995 2540246 2531948 2528882 2535481 2554011 2584542 2623875 2667746 
3449.852 2711488 2751200 2784646 2810958 2830601 2844075 2851345 2851279 
3453.709 2842340 2823230 2793250 2754168 2709788 2664813 2625809 2598475 
3457.567 2586242 2589975 2607942 2635776 2667713 2697785 2721224 2734962 
3461.424 2738329 2732294 2719157 2701453 2681149 2659479 2637643 2616142 
3465.282 2596442 2580676 2571243 2570177 2579243 2597942 2623709 2653445 
3469.139 2682816 2707954 2726526 2737996 2743431 2745698 2747999 2752534 
3472.997 2760870 2772441 2785213 2796484 2803654 2804688 2799452 2788948 
3476.854 2774842 2758736 2741030 2721891 2700419 2676614 2651278 2627209 
3480.711 2608875 2600808 2605942 2624842 2654645 2689150 2721091 2744098 
3484.569 2753601 2748632 2731194 2705287 2677115 2652778 2636343 2630676 
3488.426 2635643 2649577 2668780 2689617 2707954 2720757 2726492 2724725 
3492.284 2716256 2703586 2689683 2677248 2668813 2665746 2667980 2674481 
3496.141 2682582 2689784 2693251 2690350 2679615 2660712 2634510 2602775 
3499.999 2568643 2535381 2506353 2484258 2470929 2466963 2471695 2484492 
3503.856 2504020 2529615 2560444 2595009 2630809 2664513 2691784 2708688 
3507.713 2712355 2702353 2680915 2652878 2624742 2601975 2588442 2585909 
3511.571 2594275 2612575 2639677 2674147 2713556 2754701 2792783 2822230 
3515.428 2839339 2842807 2835270 2822730 2813159 2813459 2825798 2846910 
3519.286 2867788 2876861 2863252 2821329 2752067 2665079 2574476 2496722 
3523.143 2444638 2422680 2426545 2445404 2466364 2478560 2476861 2461399 
3527.000 2437474 2412651 2394193 2387229 2393959 2413784 2444805 2484625 
3530.858 2530615 2580209 2630109 2676381 2714823 2741063 2751900 2746198 
3534.715 2725826 2695985 2664513 2640910 2633910 2648177 2683549 2734995 
3538.573 2793650 2848410 2889302 2908215 2900609 2865654 2806322 2727359 
3542.430 2634643 2534614 2434208 2341721 2267239 2221810 2214816 2251885 
3546.288 2330761 2441206 2565810 2685783 2783712 2848144 2874092 2863352 
3550.145 2823097 2764038 2700819 2647611 2616175 2613042 2636776 2679882 
3554.002 2730593 2777977 2812525 2828966 2826832 2809657 2783646 2755868 
3557.860 2732661 2717490 2711455 2712555 2717456 2723325 2727859 2729626 
3561.717 2727293 2717990 2696685 2656312 2589209 2489091 2355446 2195867 
3565.575 2030388 1890995 1811898 1816058 1901411 2041373 2198698 2342321 
3569.432 2456134 2536381 2588409 2621609 2646044 2668680 2693084 2719157 
3573.290 2744131 2764938 2779744 2788081 2791315 2791482 2788814 2782578 
3577.147 2770840 2751800 2725692 2695385 2665946 2643910 2634310 2639243 
3581.004 2656645 2681215 2704753 2718690 2715423 2688617 2634176 2550612 
3584.862 2439706 2307543 2168094 2044603 1964480 1952198 2014875 2137626 
3588.719 2290489 2443405 2575376 2676014 2743797 2782412 2797885 2796384 
3592.577 2783345 2763204 2739529 2715489 2694251 2678481 2669713 2667013 
3596.434 2667646 2667713 2663212 2653445 2640677 2630676 2632443 2654678 
3600.292 2702119 2774308 2864153 2960087 3048702 3118880 3162867 3175951 
3604.149 3157227 3107433 3029817 2930197 2817694 2705687 2608742 2540646 
3608.006 2508252 2508419 2527882 2549945 2560911 2553012 2527015 2490290 
3611.864 2454834 2433575 2436807 2467297 2518417 2576509 2626642 2656411 
3615.721 2657345 2626009 2562844 2474394 2373536 2280163 2219179 2210087 
3619.579 2260445 2361243 2493756 2635276 2768273 2883732 2978336 3053808 
3623.436 3113473 3158929 3189002 3198581 3179589 3122651 3020541 2872024 
3627.293 2687883 2500887 2364375 2330595 2414317 2578876 2763871 2922458 
3631.151 3035422 3100725 3127357 3128191 3117979 3108701 3107433 3114942 
3635.008 3127090 3137903 3143610 3143276 3139505 3136434 3136968 3141607 
3638.866 3147748 3150919 3146747 3133931 3114441 3093717 3077833 3070625 
3642.723 3070892 3072194 3063117 3030317 2960821 2843474 2670647 2441172 
3646.581 2164764 1863507 1572668 1337059 1198918 1189482 1317583 1564089 
3650.438 1885470 2227139 2543313 2805588 3003759 3140072 3221680 3258334 
3654.295 3260905 3242444 3217374 3199449 3198348 3214804 3242510 3273524 
3658.153 3302803 3329847 3357494 3389785 3429792 3477352 3528691 3576963 
3662.010 3615551 3639307 3647059 3640978 3625809 3606096 3583177 3555015 
3665.868 3515764 3457078 3370350 3250088 3095920 2918322 2739263 2591309 
3669.725 2505853 2493989 2537713 2601808 2654811 2674981 2652711 2586342 
3673.583 2480393 2348417 2218913 2134429 2129735 2206657 2335891 2484858 
3677.440 2635776 2785246 2936435 3091982 3249187 3400271 3533936 3640744 
3681.297 3714326 3752859 3757705 3732105 3680507 3607633 3518236 3416200 
3685.155 3304473 3184896 3059147 2929864 2803154 2688950 2601475 2555811 
3689.012 2561377 2618609 2719524 2849611 2993216 3135834 3265979 3375559 
3692.870 3461788 3525785 3571885 3605862 3633326 3657986 3680608 3699087 
3696.727 3708243 3703364 3680741 3639608 3582776 3516766 3449931 3394160 
3700.584 3361468 3360633 3394427 3456410 3533735 3611676 3677867 3725889 
3704.442 3752358 3757906 3743601 3711251 3661561 3594470 3509284 3405747 
3708.299 3285275 3153289 3019941 2901644 2818228 2786780 2815260 2897107 
3712.157 3012734 3137803 3252692 3346475 3415799 3462289 3489076 3499130 
3716.014 3494921 3478454 3452603 3421009 3389251 3363138 3347744 3346342 
3719.872 3359665 3384843 3416133 3445790 3464192 3463090 3437975 3389718 
3723.729 3324772 3254628 3194276 3157894 3156526 3192273 3257132 3333988 
3727.586 3403276 3450031 3466096 3449564 3402875 3329948 3234332 3117545 
3731.444 2979904 2820329 2639443 2442972 2245024 2070403 1954794 1934492 
3735.301 2031253 2231668 2489990 2747332 2961822 3117612 3216640 3270720 
3739.159 3293388 3296827 3288347 3272355 3250122 3220579 3182059 3133097 
3743.016 3073228 3005761 2938904 2883165 2845942 2826832 2819362 2816060 
3746.874 2810391 2794884 2759770 2694818 2590742 2447803 2282794 2133264 
3750.731 2044037 2049330 2155407 2336891 2551645 2757202 2926761 3048602 
3754.588 3123419 3159230 3166639 3156459 3137435 3117111 3100725 3091548 
3758.446 3092283 3104530 3128091 3159930 3194943 3226387 3248786 3259903 
3762.303 3259836 3251691 3239706 3228156 3220412 3217274 3216006 3212501 
3766.161 3202921 3186565 3166105 3148049 3141374 3154857 3195277 3263943 
3770.018 3354122 3453304 3549369 3633393 3702696 3758975 3805434 3845982 
3773.875 3882554 3915185 3941130 3955475 3952499 3926787 3875400 3799785 
3777.733 3706205 3607566 3521409 3462823 3439478 3446758 3470939 3495088 
3781.590 3506512 3498896 3473244 3436939 3400872 3378331 3378765 3405981 
3785.448 3456410 3522645 3595539 3668177 3736249 3797713 3851330 3896027 
3789.305 3930197 3951696 3958952 3950793 3926252 3885864 3830337 3760312 
3793.163 3677132 3583110 3481727 3380268 3289415 3220445 3182960 3178188 
3797.020 3196912 3222114 3236669 3227222 3187333 3118679 3033120 2954249 
3800.877 2911784 2930397 3009597 3123285 3235801 3322669 3374357 3393391 
3804.735 3389451 3379099 3383207 3421210 3504708 3627479 3766595 3894490 
3808.592 3991622 4050313 4071216 4060915 4027505 3979416 3922908 3861526 
3812.450 3795474 3722413 3639976 3547432 3449597 3358496 3290317 3258301 
3816.307 3261773 3286310 3310649 3317360 3298262 3253493 3192340 3131495 
3820.165 3096187 3108701 3173915 3271020 3367211 3437106 3470872 3472275 
3824.022 3451534 3422278 3397599 3389952 3407016 3448695 3506445 3566607 
3827.879 3616353 3647159 3656382 3646458 3623069 3592331 3560460 3531497 
3831.737 3506378 3483731 3461420 3437808 3413228 3388883 3366343 3345240 
3835.594 3323771 3297461 3262273 3216606 3164303 3115142 3080970 3071893 
3839.452 3090447 3132329 3188768 3250856 3313420 3375025 3437708 3505543 
3843.309 3581540 3665738 3754263 3840533 3917157 3977410 4016803 4032421 
3847.167 4022856 3987676 3927054 3842037 3733575 3603190 3452703 3284541 
3851.024 3104296 2925527 2774475 2692617 2719991 2861685 3072327 3289448 
3854.881 3472876 3612010 3714259 3791128 3851765 3900541 3937419 3960022 
3858.739 3965105 3950727 3917726 3868948 3809980 3746977 3685654 3630486 
3862.596 3584647 3551708 3536475 3544258 3576997 3629317 3688260 3735848 
3866.454 3755666 3737151 3675829 3575460 3451133 3332519 3256030 3250456 
3870.311 3315757 3424449 3539548 3636066 3704902 3749450 3780566 3811251 
3874.168 3850795 3900474 3953435 3999480 4030448 4041417 4031250 4001387 
3878.026 3955508 3898702 3837558 3780332 3734177 3702429 3682713 3668611 
3881.883 3652706 3630687 3602455 3573823 3555650 3561396 3603858 3686188 
3885.741 3796276 3909434 4002624 4062487 4087204 4082588 4056500 4017739 
3889.598 3973899 3932036 3899070 3879713 3877205 3891380 3919732 3957113 
3893.456 3997507 4033992 4060045 4070447 4061684 4032554 3983830 3918294 
3897.313 3840499 3755566 3668812 3585282 3508048 3438576 3377563 3324939 
3901.170 3281536 3250222 3236368 3246750 3287078 3359798 3460351 3578768 
3905.028 3702095 3820242 3928191 4025330 4112825 4191773 4260630 4315709 
3908.885 4351719 4364236 4352087 4318654 4271638 4220579 4174912 4140255 
3912.743 4116505 4099580 4083792 4064092 4038607 4009613 3982426 3963332 
3916.600 3957213 3965205 3985001 4013258 4046400 4082354 4118579 4151126 
3920.458 4174242 4180766 4165009 4124332 4061818 3986973 3913312 3857949 
3924.315 3834048 3846617 3890077 3951964 4018107 4076735 4122626 4154037 
3928.172 4172135 4178056 4171867 4152096 4117140 4067236 4006503 3943605 
3932.030 3890845 3859688 3857849 3886131 3939124 4006636 4077972 4143901 
3935.887 4197995 4237442 4262102 4274081 4275821 4268560 4252599 4227070 
3939.745 4191572 4148149 4101085 4058741 4030648 4024562 4042922 4080314 
3943.602 4126506 4168254 4195620 4203750 4192609 4165979 4129751 4089913 
3947.459 4051851 4019746 3997608 3988545 3995568 4020849 4063858 4121455 
3951.317 4187123 4253235 4311526 4357442 4388602 4406810 4416350 4422275 
3955.174 4428501 4437572 4449958 4464922 4480589 4494516 4503990 4505899 
3959.032 4497094 4475835 4442761 4401723 4359116 4323239 4300684 4294359 
3962.889 4302123 4318085 4334618 4345528 4348707 4346164 4342850 4344390 
3966.747 4354229 4372737 4396334 4419162 4435932 4443263 4441221 4432217 
3970.604 4420434 4409354 4400451 4393288 4386661 4379465 4371666 4365809 
3974.461 4365341 4374678 4396635 4431346 4476003 4525116 4571021 4606785 
3978.319 4627581 4632436 4623763 4607722 4591749 4582273 4583076 4593926 
3982.176 4611172 4630092 4645631 4655177 4658693 4658157 4655612 4651928 
3986.034 4646536 4636924 4620849 4598212 4570653 4543397 4522538 4513633 
3989.891 4519961 4541188 4573332 4610703 4647306 4677817 4698951 4708866 
3993.749 4708029 4698047 4681367 4662344 4645833 4636020 4636288 4646904 
3997.606 4665157 4685621 4702000 4708933 4703942 4688669 4667870 
##END=
