##TITLE=la_2 Sep 02 12:01:14 2026 (GMT+02:00)
##JCAMP-DX=5.01  $$ Nicolet v. 970
##DATATYPE=INFRARED SPECTRUM
##ORIGIN=Vojna akademija
##OWNER=Nicolet
##LONGDATE=2026/09/02
##TIME=12:01:40
##SPECTROMETER/DATA SYSTEM=Nicolet iS20
##DATA PROCESSING=
Ratio against background
%Transmittance->Absorbance
Truncated
ElementMultiply or ElementDivide
##COMMENTS=
Number of sample scans: 8
Collection length: 11,90 sec
Sample gain: 8,0
Background collected on: Wed Sep 02 11:53:24 2026 (GMT+02:00);
Number of background scans: 8
Background gain: 8,0
Sample spacing:  1,000
Number of scan points: 12415
Resolution points: 8286
Number of FFT points: 65536
Apodization: N-B strong;
Phase correction: Mertz;
Laser frequency: 15798,00 cm-1
Number of rejected sample scans: 0
Number of rejected background scans: 0
Bench serial number: BER2010005;
##RESOLUTION= 4,000
##XUNITS=1/CM
##YUNITS=ABSORBANCE
##FIRSTX=400.156891
##LASTX=4000.123047
##FIRSTY=0.017410
##MAXX=4000.123047
##MINX=400.156891
##MAXY=0.155358
##MINY=0.000240
##XFACTOR=1.000000
##YFACTOR=1.000000E-009
##NPOINTS=7468
##DELTAX=0.482117
##ZPD=6100
##XYDATA=(X++(Y..Y))
400.157 17409624 15767010 14175736 12556847 10803079 8870328 6824480 4858214 
404.014 3249621 2292354 2241393 3192173 5034998 7442828 9983173 12186784 
407.871 13639186 14075957 13400324 11738460 9407856 6873119 4603637 2955584 
411.728 2142954 2184878 2935435 4116170 5430350 6627284 7583576 8313875 
415.585 8928194 9571530 10358556 11316649 12323386 13093667 13263793 
418.959 12655903 11470667 10177353 9167756 8600242 8398083 8356095 8213780 
422.816 7742956 6832288 5541417 4121623 2934234 2344753 2562844 3610172 
426.673 5325214 7437166 9608893 11510780 12896813 13599492 13557442 12797020 
430.530 11428245 9636603 7676580 5866463 4500140 3809145 3905957 4758710 
434.387 6192524 7911909 9581557 10873061 11592479 11723992 11408924 10852438 
438.244 10237022 9675090 9190057 8749683 8302696 7820677 7320220 6869820 
442.101 6565014 6502182 6733509 7247912 7973495 8805606 9631319 10343761 
445.958 10863344 11136372 11146162 10916583 10503173 9971137 9366989 8709622 
449.815 7989661 7189427 6308258 5382777 4492875 3747879 3239105 3011599 
453.672 3046000 3281336 3644787 4087939 4602465 5210513 5939818 6781701 
457.529 7661809 8457204 9049633 9392992 9533087 9576882 9640398 9797043 
461.386 10061771 10381700 10661114 10793942 10715245 10421780 9963509 
464.761 9412325 8837797 8288612 7789674 7357053 7008902 6770157 6666446 
468.617 6705175 6861674 7074468 7260984 7344045 7280425 7086357 6839660 
472.474 6649220 6594953 6689663 6868339 7029005 7074704 6961088 6708103 
476.331 6397492 6140768 6046883 6183617 6550516 7085279 7685753 8251093 
480.188 8693700 8955422 9010694 8858188 8519137 8032085 7456008 6862549 
484.045 6336197 5964742 5811857 5904986 6219211 6687274 7210752 7688519 
487.902 8041097 8216548 8207769 8049097 7809949 7568775 7395776 7330734 
491.759 7369825 7467940 7550737 7546792 7403528 7110337 6696763 6226202 
495.616 5776465 5426022 5242505 5262728 5491450 5901023 6445277 7063658 
499.473 7692836 8274158 8750325 9079744 9247052 9270881 9200176 9099977 
503.330 9030620 9027237 9094057 9209483 9337163 9434707 9466199 9411648 
507.187 9267632 9048144 8777677 8485213 8195478 7926385 7687001 7478727 
511.044 7295959 7129064 6970247 6817007 6677651 6570396 6522093 6557546 
514.901 6690168 6914593 7203609 7512741 7794903 8018247 8173397 8270578 
518.758 8325562 8344881 8314112 8204730 7983282 7633583 7168036 6633474 
522.615 6098292 5641974 5333902 5212826 5279933 5497557 5804302 6127023 
526.471 6406638 6609924 6729505 6776384 6768912 6724760 6655915 6570430 
530.328 6473426 6368003 6255648 6137239 6014227 5891686 5780226 5694980 
534.185 5653554 5667553 5736442 5843760 5962391 6061734 6117681 6123226 
538.042 6088615 6039223 6005089 6015705 6091807 6243614 6474300 6779379 
541.899 7146613 7550602 7954832 8308707 8557018 8656450 8586555 8364911 
545.756 8046700 7717929 7464300 7344752 7374173 7519754 7715197 7882857 
549.613 7963978 7931548 7799660 7610484 7422436 7286558 7233694 7272103 
553.470 7388260 7551681 7720897 7854786 7914473 7870710 7710644 7438615 
557.327 7079655 6673849 6274372 5933603 5694744 5588840 5629822 5815350 
561.184 6126250 6529829 6977991 7412729 7779150 8030398 8143618 8125488 
565.041 8015344 7874658 7767343 7744912 7823881 7982100 8161816 8294692 
568.898 8317016 8193385 7926588 7553839 7133140 6723447 6376174 6121210 
572.755 5966422 5900048 5896958 5922721 5941463 5924165 5852626 5725061 
576.612 5556184 5374592 5214235 5104994 5070598 5123936 5265914 5485108 
580.469 5757360 6045170 6302139 6485331 6559834 6512137 6355327 6133005 
584.326 5911703 5762598 5746683 5887890 6167519 6526197 6887460 7175616 
588.182 7338788 7365040 7280055 7136878 6992335 6894563 6863862 6890658 
592.039 6940820 6973445 6954658 6869248 6723919 6541905 6353780 6185197 
595.896 6051386 5951776 5873112 5796176 5708140 5611261 5529068 5499470 
599.753 5564776 5754170 6066841 6466666 6887628 7256032 7501145 7578047 
603.610 7475795 7216276 6845248 6416793 5984764 5589947 5263164 5027690 
607.467 4899127 4884685 4977816 5155990 5378584 5596559 5766661 5859746 
611.324 5873650 5831570 5774988 5745608 5773745 5868948 6019871 6199381 
615.181 6374493 6517249 6608511 6642692 6626140 6577864 6523808 6493908 
619.038 6516509 6607367 6763359 6957082 7143716 7266207 7276079 7150891 
622.895 6903114 6579647 6246673 5972872 5800809 5737416 5751517 5791307 
626.752 5801347 5746716 5626231 5470680 5331855 5261722 5299387 5454205 
630.609 5704447 6001494 6288961 6515871 6650700 6690404 6656924 6588999 
634.466 6523304 6483010 6465555 6444570 6378830 6232354 5990408 5671379 
638.323 5322262 5009556 4799715 4734290 4822531 5035568 5319679 5605957 
642.180 5832308 5956243 5956747 5838420 5624888 5358725 5089774 4873995 
646.036 4762529 4787788 4956332 5242237 5592230 5932696 6194910 6334919 
649.893 6345409 6256455 6123360 6008784 5957285 5988157 6090328 6232824 
653.750 6374694 6481060 6531309 6519470 6453146 6348031 6225631 6107869 
657.607 6015839 5967363 5970722 6023096 6106558 6194642 6254807 6259312 
661.464 6193599 6057635 5864682 5636469 5396230 5160349 4937062 4726719 
665.321 4526020 4333379 4153702 4002390 3908130 3901544 3993127 4156278 
669.178 4346666 4533420 4709502 4882138 5058932 5240392 5418339 5575415 
673.035 5692193 5755412 5763538 5728384 5670440 5613744 5577194 5569475 
676.892 5587598 5619585 5648183 5658388 5641739 5599748 5542257 5482827 
680.749 5435013 5405389 5391969 5385260 5373619 5348695 5310187 5266686 
684.606 5233752 5227079 5257899 5328736 5435416 5569139 5719857 5878956 
688.463 6039357 6192490 6326951 6428227 6482035 6481631 6434078 6364271 
692.320 6309334 6313503 6414171 6630042 6959203 7378824 7852964 8339883 
696.177 8805166 9222819 9575629 9854762 10054954 10176336 10226099 10222096 
700.034 10190277 10158155 10149914 10176336 10235054 10312511 10393951 
703.408 10471809 10551887 10650961 10791836 10991238 11251424 11557939 
706.783 11884762 12204606 12497268 12758836 12999735 13240802 13503605 
710.158 13804873 14152766 14546300 14979493 15443159 15930520 16436014 
713.533 16959186 17505548 18089594 18733060 19463620 20308374 21283128 
716.908 22386100 23590910 24852536 26108022 27290684 28344698 29224678 
720.282 29902474 30362352 30598144 30612544 30419422 30046966 29533262 
723.657 28927292 28280438 27636416 27031008 26484968 26003600 25579834 
727.032 25197352 24836992 24480334 24114824 23737024 23352176 22971790 
730.407 22610166 22277336 21975398 21698398 21435848 21178710 20925304 
733.782 20683826 20470304 20301776 20187842 20125194 20097604 20082266 
737.156 20057106 20010298 19943930 19870182 19803454 19749216 19699322 
740.531 19632204 19520176 19340342 19086414 18772984 18434128 18112014 
743.906 17850690 17683692 17626926 17677240 17814614 18006940 18214314 
747.281 18397762 18522328 18560226 18497984 18335648 18086140 17770532 
750.656 17412764 17032854 16644876 16258450 15880788 15520416 15190469 
754.031 14905315 14678779 14518274 14420779 14370979 14344403 14314164 
757.405 14256535 14159613 14024999 13868737 13714344 13587696 13511398 
760.780 13496632 13542230 13634194 13751005 13865179 13950745 13989444 
764.155 13972712 13904658 13800563 13684251 13580142 13509142 13484259 
767.530 13507194 13569510 13654128 13742079 13814622 13858064 13866034 
770.905 13838840 13782915 13707368 13622740 13535462 13447382 13353681 
774.279 13245687 13111868 12942826 12735941 12497848 12244787 11999503 
777.654 11788198 11632331 11543478 11519660 11545383 11594895 11638422 
781.029 11652173 11622631 11550215 11446173 11330185 11221808 11134604 
784.404 11073486 11034263 11006429 10976898 10934660 10871022 10780932 
787.779 10662812 10517396 10349259 10166601 9983512 9817750 9687491 9607199 
791.636 9581760 9604387 9656795 9716121 9758783 9768814 9742314 9687795 
795.493 9624273 9573529 9556965 9588873 9674108 9808600 9981240 10176302 
799.350 10377085 10570084 10744861 10895858 11021077 11120666 11196750 
802.724 11251832 11290768 11319063 11344571 11376236 11422224 11487679 
806.099 11573627 11675590 11787381 11903049 12021985 12149403 12294446 
809.474 12464873 12661463 12874388 13083866 13265125 13400494 13484566 
812.849 13529753 13560485 13605714 13684901 13798614 13925700 14030885 
816.224 14078799 14044197 13923270 13733153 13505416 13269976 13048320 
819.598 12847425 12662964 12485912 12310023 12134751 11963126 11795722 
822.973 11626953 11444336 11234593 10991408 10721834 10446624 10196010 
826.348 9999956 9875438 9824766 9833409 9880115 9942558 10005652 10064280 
830.205 10119864 10175318 10231324 10283399 10324624 10348241 10351702 
833.580 10335822 10304367 10260634 10205610 10140145 10066756 9993378 
836.955 9933879 9904352 9916658 9972934 10061228 10157104 10229831 10254324 
840.812 10217821 10125595 9999312 9871031 9771558 9722390 9730692 9788604 
844.669 9877641 9974290 10060380 10125120 10169349 10202183 10238889 
848.043 10293408 10374336 10481007 10604171 10727981 10834060 10908395 
851.418 10943223 10938703 10901803 10842587 10771048 10694359 10618533 
854.793 10548661 10490070 10449068 10429620 10431317 10446895 10464850 
858.168 10471877 10458232 10422696 10373216 10324522 10290083 10278819 
861.543 10289202 10310644 10327067 10324590 10295275 10241365 10172605 
864.917 10104365 10053327 10033693 10056684 10128072 10248387 10409901 
868.292 10597245 10787896 10954368 11072330 11125629 11111522 11041027 
871.667 10935611 10819215 10708420 10611233 10525067 10442857 10358116 
875.042 10270949 10187597 10119219 10075166 10061126 10076759 10118405 
878.417 10180848 10260770 10356724 10466819 10586923 10709948 10826655 
881.792 10929597 11016353 11091535 11162480 11236803 11316309 11394671 
885.166 11459542 11497681 11502342 11477438 11436682 11398481 11379127 
888.541 11385351 11412053 11443247 11460121 11445289 11388719 11289476 
891.916 11153199 10989335 10806884 10614934 10420015 10228304 10045087 
895.291 9874895 9722119 9591312 9487094 9414560 9377958 9377891 9409887 
899.148 9462271 9518117 9558523 9568786 9543484 9489059 9421061 9358457 
903.005 9316173 9299586 9303310 9315801 9326498 9332119 9339566 9363501 
906.862 9420824 9521503 9664621 9836493 10015722 10180033 10310508 10397514 
910.719 10439564 10440853 10407560 10347053 10268234 10180135 10094326 
914.093 10021182 9968018 9936388 9921878 9915810 9908997 9896420 9877912 
917.950 9858185 9842831 9834697 9832256 9830358 9824257 9814057 9806973 
921.807 9816836 9857439 9937269 10053632 10191600 10326083 10429484 10481991 
925.664 10475712 10418895 10332937 10248150 10193398 10189633 10244994 
929.039 10352482 10491529 10633983 10752911 10827096 10847581 10819962 
932.414 10760621 10690726 10629093 10586652 10563871 10553109 10543671 
935.789 10527851 10504360 10478257 10457451 10448219 10451613 10462916 
939.163 10474185 10479547 10477782 10474253 10477545 10495501 10530907 
942.538 10579590 10631301 10673950 10698503 10700574 10681047 10644509 
945.913 10595853 10539699 10481041 10427549 10389267 10379528 10409562 
949.288 10483994 10595717 10725400 10846391 10929326 10953824 10914273 
952.663 10821491 10698707 10574633 10475508 10416927 10402638 10425581 
956.037 10473710 10533588 10595106 10653983 10708997 10760859 10810655 
959.412 10857535 10899900 10935714 10964222 10985699 11002555 11018324 
962.787 11036540 11060536 11092623 11133583 11183660 11242991 11311207 
966.162 11387426 11469715 11553482 11630833 11691757 11725354 11722767 
969.537 11681512 11606330 11509623 11407427 11315866 11244760 11196036 
972.912 11163160 11135589 11103398 11061080 11010338 10957936 10911963 
976.286 10877375 10852778 10831173 10801551 10753896 10682779 10589096 
979.661 10479853 10364529 10253137 10153678 10070520 10005889 9959949 
983.036 9932184 9920861 9923234 9934964 9950830 9965408 9975002 9978257 
986.893 9975511 9967882 9955338 9935404 9903810 9856829 9793857 9719476 
990.750 9643989 9580133 9540537 9532714 9557304 9607436 9673599 9745635 
994.607 9818021 9891471 9970425 10059566 10160021 10265418 10363273 10437935 
998.464 10475338 10468313 10419710 10341488 10251305 10169417 10112063 
1001.839 10088392 10100261 10143062 10208663 10286724 10367617 10442007 
1005.213 10500967 10537119 10544927 10522793 10474592 10410852 10346951 
1008.588 10299448 10283467 10306641 10367956 10457349 10560306 10661318 
1011.963 10748495 10817211 10869290 10910263 10945261 10974824 10994195 
1015.338 10993991 10964529 10900716 10805491 10691337 10576127 10479718 
1018.713 10418182 10399042 10419846 10469976 10536406 10605869 10670283 
1022.087 10726318 10774445 10814119 10842247 10851691 10834604 10785722 
1025.463 10706654 10606955 10504700 10421101 10374676 10378612 10437561 
1028.838 10549815 10711374 10918078 11166356 11449269 11752894 12051247 
1032.213 12307195 12482400 12543035 12474318 12286437 12015343 11711806 
1035.588 11425388 11193792 11029404 10922326 10847105 10778215 10699827 
1038.964 10613135 10533147 10482229 10477138 10520892 10599859 10688553 
1042.339 10757666 10782326 10751858 10670452 10556538 10435389 10334701 
1045.714 10278311 10280414 10345221 10465020 10623626 10798222 10964902 
1049.089 11104553 11203958 11260265 11278662 11270875 11249248 11225922 
1052.464 11209670 11205930 11218647 11250098 11300971 11368277 11445493 
1055.840 11522178 11586217 11628451 11644651 11637640 11615825 11589348 
1059.215 11565970 11548548 11535380 11522790 11508398 11493122 11479785 
1062.590 11470531 11462775 11449201 11418414 11360760 11273188 11161936 
1065.965 11041401 10927490 10831954 10756647 10693748 10628924 10549171 
1069.341 10447268 10325133 10190887 10056175 9930590 9821919 9736893 9684171 
1073.198 9674989 9721983 9831714 10000465 10209036 10427244 10618941 
1076.573 10752232 10810587 10794214 10719253 10607668 10481278 10354315 
1079.949 10233901 10123967 10029421 9958152 9919742 9918556 9949846 9996837 
1083.806 10036542 10044138 10003719 9913539 9785080 9637383 9488686 9351416 
1087.663 9229757 9122817 9030383 8956301 8908983 8897078 8923087 8978660 
1091.521 9045370 9101331 9127486 9117877 9080523 9035525 9004943 9003218 
1095.378 9031838 9079203 9125829 9153103 9153306 9131039 9100925 9080759 
1099.236 9084650 9116117 9168128 9225526 9272642 9298367 9299180 9279174 
1103.093 9247221 9212800 9181799 9155370 9130160 9100992 9063437 9016310 
1106.951 8963100 8910438 8867419 8841110 8835700 8850511 8880575 8917810 
1110.808 8954711 8985086 9006702 9021215 9032074 9042799 9055080 9066955 
1114.665 9074229 9070880 9051528 9013096 8955963 8884870 8806924 8733219 
1118.523 8675547 8645262 8651583 8698365 8782952 8895827 9022196 9145286 
1122.380 9249319 9325516 9372203 9394921 9402743 9403962 9401524 9392619 
1126.238 9369325 9324264 9254769 9166740 9074094 8995472 8948319 8941148 
1130.095 8970981 9023346 9077511 9112971 9117979 9093819 9055316 9025850 
1133.953 9030553 9089557 9210330 9386694 9599408 9823580 10030574 10196451 
1137.810 10305488 10350345 10334057 10267827 10169892 10061364 9965069 
1141.185 9901810 9885200 9920420 10001821 10114912 10238990 10354077 
1144.560 10445368 10506500 10540480 10557081 10568726 10584818 10608551 
1147.936 10636665 10661759 10675207 10672897 10656428 10635138 10622133 
1151.311 10631368 10673509 10751790 10860898 10986242 11108564 11206304 
1154.686 11260945 11262850 11211744 11118389 11000210 10878666 10771660 
1158.061 10690081 10635783 10603798 10585939 10575040 10569201 10570864 
1161.437 10585158 10615444 10660401 10713514 10765173 10806205 10832158 
1164.812 10844693 10850469 10857331 10869969 10887636 10904148 10910910 
1168.187 10900716 10871192 10825058 10767652 10703020 10631775 10550054 
1171.562 10452020 10333582 10196315 10047935 9901538 9769220 9659607 9574104 
1175.420 9508024 9452959 9402438 9355376 9316444 9294203 9295862 9323079 
1179.277 9369088 9418928 9453670 9457937 9424447 9357340 9270915 9185827 
1183.135 9121362 9088913 9088846 9110873 9137706 9150497 9137672 9096730 
1186.992 9035491 8967903 8909288 8869618 8850646 8846555 8847704 8845879 
1190.849 8838303 8827686 8821870 8827855 8847772 8878275 8910945 8938037 
1194.707 8956538 8971455 8994356 9039416 9116151 9224409 9351619 9477612 
1198.564 9578914 9636603 9643481 9603845 9532443 9447033 9364855 9297961 
1202.422 9250978 9223935 9214086 9217436 9229655 9246713 9263604 9275079 
1206.279 9277109 9267800 9249184 9226744 9209348 9205591 9221938 9261438 
1210.137 9323858 9404910 9498169 9595885 9688575 9765357 9815819 9829951 
1213.994 9802262 9733775 9633555 9517372 9404707 9316105 9265905 9260490 
1217.851 9296607 9363129 9443274 9518997 9576001 9604285 9600119 9565670 
1221.709 9507279 9433861 9354191 9276432 9205862 9145116 9095477 9056974 
1225.566 9030485 9017460 9020302 9039957 9075447 9121870 9171106 9213544 
1229.424 9241264 9250911 9245495 9234969 9232802 9251283 9297860 9371221 
1233.281 9461492 9551173 9621562 9656795 9648698 9598527 9516728 9420756 
1237.139 9328191 9255683 9213646 9204982 9225797 9267564 9319524 9371018 
1240.996 9413747 9443545 9459528 9465184 9465725 9468976 9481202 9507076 
1244.853 9548396 9603033 9666044 9731098 9791994 9844526 9887233 9920793 
1248.711 9947269 9968323 9983749 9991886 9990022 9977443 9955915 9931878 
1252.568 9914895 9914420 9936794 9982224 10043392 10107282 10157376 10179999 
1256.426 10166975 10118778 10043392 9955440 9872319 9809447 9779082 9788435 
1260.283 9838222 9923335 10034236 10159072 10284417 10399042 10494652 
1263.658 10567503 10618092 10651334 10673746 10691405 10709268 10729442 
1267.034 10752503 10778080 10806341 10837389 10872585 10912404 10956407 
1270.409 11003133 11050781 11097109 11140383 11180159 11215314 11244080 
1273.784 11263598 11270331 11261762 11237959 11203108 11165132 11134434 
1277.159 11121074 11131408 11166084 11219870 11283491 11345217 11395148 
1280.535 11428280 11444642 11448691 11447908 11449677 11458828 11476893 
1283.910 11500675 11525206 11544704 11554809 11555422 11550624 11548548 
1287.285 11558892 11591322 11651288 11739072 11848668 11970040 12089948 
1290.660 12195678 12277882 12331567 12356861 12358872 12347316 12333851 
1294.036 12331669 12352805 12405852 12494677 12616537 12763545 12922174 
1297.411 13077618 13217130 13331950 13419119 13481012 13523703 13554024 
1300.786 13577987 13599389 13619936 13640143 13660590 13681927 13705385 
1304.161 13730965 13757913 13782504 13799845 13803984 13789413 13752954 
1307.536 13694613 13618603 13531771 13444271 13366289 13306018 13268541 
1310.912 13253544 13255388 13262870 13262426 13241041 13189668 13105858 
1314.287 12994922 12868176 12738841 12620050 12522265 12450620 12406193 
1317.662 12385976 12385123 12397669 12419694 12448540 12483014 12522845 
1321.037 12567216 12614218 12660883 12703494 12738738 12765081 12783200 
1324.413 12795962 12808043 12824424 12848006 12878518 12911865 12942177 
1327.788 12962455 12968122 12959246 12940812 12922242 12914358 12927123 
1331.163 12966483 13033126 13122933 13228847 13342986 13458216 13569612 
1334.538 13673925 13768994 13853378 13927068 13991908 14052445 14116346 
1337.914 14192477 14287866 14404921 14538214 14675900 14803208 14909464 
1341.289 14990811 15050905 15097833 15141576 15190641 15249973 15321155 
1344.664 15402270 15489855 15579415 15667895 15753163 15834050 15910758 
1348.039 15983870 16055172 16126588 16200459 16278161 16359385 16442036 
1351.415 16522983 16599331 16669909 16736122 16802142 16873508 16955396 
1354.790 17051636 17163992 17293584 17441596 17610708 17804946 18028008 
1358.165 18282596 18569182 18888382 19243908 19646624 20117454 20683236 
1361.540 21369992 22186908 23111756 24087680 25040704 25904162 26636396 
1364.916 27226614 27684902 28034484 28305548 28536722 28775668 29072808 
1368.291 29480244 30037024 30761684 31654064 32704088 33904476 35261908 
1371.666 36801672 38558552 40554232 42767152 45097668 47365144 49361668 
1375.041 50909456 51922780 52401280 52386364 51918076 51017284 49696864 
1378.417 47985236 45950008 43700952 41357492 39031248 36798716 34696488 
1381.792 32737564 30920870 29240308 27685538 26239466 24875938 23562502 
1385.167 22267256 20968316 19664200 18377990 17149618 16017767 15004393 
1388.542 14107035 13310836 12600129 11965510 11403821 10914273 10495263 
1391.918 10141536 9846695 9605641 9416523 9278531 9187858 9134051 9098793 
1395.775 9066346 9030011 8995675 8977409 8989857 9037386 9107962 9174083 
1399.632 9205118 9184643 9116388 9020844 8923019 8845033 8797355 8779131 
1403.490 8779807 8785927 8788937 8790018 8798437 8825488 8876787 8949739 
1407.347 9036405 9128874 9223022 9318611 9417133 9517066 9611298 9687999 
1411.205 9735571 9749701 9735470 9706973 9680613 9667399 9669703 9682036 
1415.062 9696605 9710057 9730252 9777624 9881844 10070181 10352313 10702748 
1418.920 11064581 11372902 11593671 11734954 11831813 11922223 12034929 
1422.295 12187670 12387646 12633150 12914050 13214807 13518336 13813219 
1425.670 14098068 14383172 14688993 15042706 15475537 16014157 16672283 
1429.045 17443390 18303022 19217306 20156776 21103118 22048248 22987336 
1432.421 23915854 24828678 25727324 26628856 27569650 28606152 29801392 
1435.796 31192780 32744352 34338564 35831764 37137092 38258804 39261496 
1439.171 40222056 41206420 42253968 43378148 44569420 45807012 47068116 
1442.546 48333368 49591260 50832608 52047708 53228272 54369620 55478736 
1445.922 56576196 57693768 58860624 60087468 61358468 62636988 63888760 
1449.297 65104664 66304640 67527712 68809912 70164488 71569160 72969888 
1452.672 74304488 75518920 76593128 77538640 78386344 79166288 79888832 
1456.047 80528112 81021680 81312344 81399904 81340440 81198400 81002832 
1459.422 80755192 80448272 80082352 79665472 79206760 78704128 78136544 
1462.798 77459544 76611832 75531536 74186168 72594240 70808824 68878912 
1466.173 66819936 64607464 62215096 59639504 56919048 54109568 51277396 
1469.548 48469900 45683240 42878904 39998856 37021252 34018772 31178396 
1472.923 28715062 26731314 25181974 23930242 22831448 21795590 20788508 
1476.299 19821348 18922680 18114984 17399622 16760951 16177107 15632000 
1479.674 15118417 14638545 14196037 13791397 13417923 13065700 12726797 
1483.049 12399886 12089948 11805051 11550420 11324572 11120054 10925383 
1486.424 10732464 10541023 10360864 10208392 10098803 10036848 10010670 
1489.800 9994565 9962525 9897267 9797010 9668043 9517778 9350942 9169955 
1493.657 8979303 8786366 8605109 8454805 8353157 8307492 8305972 8322589 
1497.515 8327149 8301818 8244373 8162356 8064590 7954326 7828639 7681909 
1501.372 7510179 7314828 7101513 6881098 6666715 6471138 6310847 6207413 
1505.229 6191079 6295853 6534236 6850196 7113469 7218601 7156482 6986005 
1509.087 6772008 6563399 6389254 6260993 6176526 6119328 6064926 5988560 
1512.944 5876068 5727679 5557862 5389218 5249280 5162394 5139963 5171347 
1516.802 5224765 5264070 5266149 5231573 5178891 5135269 5125747 5166786 
1520.659 5253505 5352519 5409448 5383650 5275037 5115085 4944971 4799916 
1524.516 4708363 4685822 4732280 4828125 4939341 5027255 5063223 5038081 
1528.374 4957773 4836837 4690243 4532047 4373105 4223824 4099312 4019846 
1532.231 4010683 4091452 4255979 4460436 4639336 4746181 4768224 4720020 
1536.089 4625672 4509983 4393522 4293857 4229278 4218437 4281309 4430242 
1539.946 4657019 4923758 5178757 5381670 5513262 5571991 5566051 5506920 
1543.804 5406798 5276546 5125110 4960086 4788927 4621586 4469039 4345896 
1547.661 4267723 4246409 4285491 4371030 4470713 4542259 4556255 4508075 
1551.518 4416116 4307410 4208300 4134835 4087806 4052052 4003861 3923376 
1555.376 3803730 3653976 3494821 3362403 3309714 3414263 3748180 4278431 
1559.233 4802730 5117868 5200385 5131346 4992228 4831442 4678721 4551601 
1563.091 4460904 4411229 4395899 4396033 4384820 4340574 4255644 4140656 
1566.948 4018742 3921370 3880448 3916622 4029444 4187490 4339637 4440753 
1570.806 4476940 4460938 4416953 4365575 4321566 4295229 4295229 4332810 
1574.663 4421404 4569515 4767152 4976777 5145260 5233216 5236938 5179730 
1578.520 5092891 5001646 4922115 4859922 4812680 4773349 4735596 4697813 
1582.378 4664353 4643689 4643455 4666396 4707794 4757337 4803132 4837741 
1586.235 4859654 4873191 4883880 4895341 4905930 4909650 4898826 4868333 
1590.093 4818711 4757202 4694966 4644728 4618807 4624868 4667233 4744909 
1593.950 4851713 4976441 5103552 5215744 5296435 5335579 5331117 5289023 
1597.807 5219902 5135470 5045523 4957338 4876911 4811072 4768090 4757102 
1601.665 4785142 4852082 4948758 5057692 5157666 5229728 5266048 5269570 
1605.522 5252398 5229125 5211519 5203940 5203068 5200955 5190661 5170039 
1609.380 5141941 5111263 5080789 5048004 5006339 4948423 4871114 4777034 
1613.237 4676343 4583746 4515407 4487921 4511691 4585521 4688635 4785108 
1617.095 4837373 4825713 4754154 4640206 4504158 4362897 4231453 4122492 
1620.952 4047470 4015365 4028374 4076635 4134969 4175079 4174744 4130988 
1624.809 4056634 3971659 3894924 3839296 3811585 3810381 3828265 3853102 
1628.667 3873361 3880448 3869650 3839430 3789691 3721177 3635866 3538512 
1632.524 3437708 3346709 3286878 3286143 3374190 3566240 3839162 4123094 
1636.382 4334952 4431681 4419162 4330903 4202312 4063992 3936081 3830471 
1640.239 3752090 3697750 3659389 3626143 3590026 3547899 3503405 3466330 
1644.097 3452269 3480625 3570382 3731904 3952198 4185015 4357442 4412032 
1647.954 4336626 4158653 3916890 3645589 3371385 3113540 2899809 2772408 
1651.811 2795150 3037825 3498996 4018074 4360320 4446142 4354129 4190635 
1655.669 4021619 3878843 3771241 3694609 3638104 3587587 3530896 3459450 
1659.526 3372187 3274826 3180757 3108067 3075798 3097021 3170444 3274525 
1663.384 3374791 3439812 3451234 3407450 3318896 3203121 3080035 2970563 
1667.241 2897674 2882297 2938771 3065954 3242043 3423881 3563300 3628081 
1671.099 3607900 3513560 3367211 3198648 3040661 2929664 2903912 2987377 
1674.956 3172380 3408252 3625140 3767097 3816331 3787017 3705904 3598646 
1678.813 3483097 3368848 3257032 3144845 3032686 2929096 2856015 2850145 
1682.671 2957419 3215872 3605762 4013659 4280405 4335320 4222988 4029845 
1686.528 3823551 3645088 3516399 3443786 3424616 3446090 3489209 3530295 
1690.386 3547432 3526320 3459951 3351183 3210598 3056277 2911217 2803654 
1694.243 2765138 2818861 2961021 3142675 3289482 3342402 3293789 3176619 
1698.100 3044231 2952448 2952681 3072828 3283706 3491247 3599381 3580137 
1701.958 3463691 3299598 3129659 2988478 2900676 2880063 2925094 3014168 
1705.815 3111738 3182660 3210665 3198615 3162834 3121016 3087277 3067022 
1709.673 3058646 3054375 3046634 3030884 3007762 2982173 2959887 2944975 
1713.530 2936702 2930097 2920323 2907981 2907047 2944575 3051372 3244780 
1717.388 3504942 3771108 3968850 4055330 4031350 3926853 3777491 3613881 
1721.245 3457847 3321367 3211232 3129192 3072961 3038092 3018673 3008864 
1725.102 3002324 2993583 2977736 2952448 2918355 2878762 2838438 2800753 
1728.960 2765638 2727759 2679915 2617442 2543479 2472428 2431476 2456734 
1732.817 2585475 2831735 3155491 3455375 3631723 3654778 3558155 3396798 
1736.675 3216540 3052573 2928029 2858750 2850511 2894705 2967260 3036190 
1740.532 3077366 3080002 3047768 2993216 2932466 2879596 2843208 2825165 
1744.390 2821263 2824097 2826532 2824164 2815527 2801687 2784179 2764538 
1748.247 2745365 2730927 2729793 2752434 2806322 2889969 2987878 3073929 
1752.104 3121950 3118079 3063651 2974666 2874659 2792182 2753034 2773141 
1755.962 2850812 2962456 3068690 3129893 3126823 3064052 2963157 2850712 
1759.819 2753934 2693184 2678548 2707187 2762704 2821396 2859684 2863853 
1763.677 2831101 2767672 2685516 2601775 2536647 2509252 2534214 2613075 
1767.534 2730127 2853713 2950413 2999688 3001357 2974399 2949512 2958886 
1771.391 3020174 3125555 3239372 3320532 3345240 3318429 3261272 3196612 
1775.249 3137936 3087077 3036924 2978670 2907848 2829934 2758703 2713189 
1779.106 2709188 2751833 2830034 2919890 2995418 3039693 3051872 3043564 
1782.964 3031919 3030417 3044532 3069658 3094652 3106699 3098022 3068757 
1786.821 3024779 2975167 2928830 2894472 2880897 2897374 2954149 3058746 
1790.679 3210331 3392056 3570449 3702095 3755132 3724452 3629952 3501735 
1794.536 3365976 3239639 3128024 3028749 2936235 2846409 2759436 2680515 
1798.393 2616942 2575576 2558378 2561844 2577543 2596942 2615442 2634176 
1802.251 2657278 2688750 2727793 2768640 2801620 2816260 2806322 2770774 
1806.108 2715756 2651644 2591909 2548345 2528582 2535114 2565277 2612242 
1809.966 2666480 2717557 2755635 2772641 2765238 2734361 2685049 2624142 
1813.823 2558911 2495122 2435541 2379933 2325298 2267473 2203360 2133364 
1817.681 2063412 2003591 1965445 1959255 1989178 2052126 2137526 2230869 
1821.538 2318303 2390028 2442739 2480693 2512018 2545079 2583876 2625176 
1825.395 2659412 2676881 2672114 2647511 2612242 2577876 2556544 2556044 
1829.253 2576709 2610175 2643510 2666580 2675481 2674247 2668180 2661546 
1833.110 2655445 2648411 2638310 2625909 2615209 2613308 2626342 2656178 
1836.968 2696652 2734628 2752567 2735128 2676081 2579609 2459133 2333060 
1840.825 2223076 2148281 2125539 2166296 2272735 2431843 2612375 2772675 
1844.682 2871757 2888768 2828233 2715589 2583342 2462032 2375835 2334859 
1848.540 2336724 2367506 2408953 2445671 2471196 2488924 2507519 2534514 
1852.397 2570076 2604209 2620575 2601942 2538513 2432376 2297950 2158637 
1856.255 2038544 1958556 1928967 1949403 2009483 2093875 2187109 2274967 
1860.112 2346785 2395659 2418815 2418815 2402555 2379433 2358545 2345419 
1863.970 2340455 2339389 2334592 2319602 2293453 2262943 2242459 2250719 
1867.827 2304479 2408386 2549845 2701953 2835770 2928663 2969162 2955717 
1871.684 2890469 2778110 2625342 2443205 2246489 2054856 1891194 1774968 
1875.542 1720675 1732185 1802749 1916221 2052959 2194702 2327097 2441072 
1879.399 2530915 2592942 2623109 2618409 2577709 2503320 2402689 2289489 
1883.257 2180582 2094941 2048031 2047233 2090180 2165297 2254116 2334526 
1887.114 2387396 2397624 2360310 2282328 2183812 2093076 2035781 2028357 
1890.972 2071236 2150879 2244724 2330328 2389128 2409352 2389128 2335292 
1894.829 2262676 2187742 2126471 2088981 2078027 2090979 2121377 2160668 
1898.686 2199064 2227838 2240494 2234533 2212086 2180515 2150612 2133664 
1902.544 2138791 2169360 2221977 2285792 2345885 2386896 2395592 2365308 
1906.401 2296318 2197532 2081790 1963981 1856852 1767681 1698288 1647497 
1910.259 1612642 1592688 1589029 1604361 1639647 1691602 1752012 1807739 
1914.116 1847435 1863407 1858117 1842045 1831962 1843043 1883141 1946540 
1917.974 2017106 2075564 2111488 2129135 2145085 2180049 2247888 2349750 
1921.831 2469396 2578543 2646911 2658012 2617842 2551378 2488591 2450769 
1925.688 2442106 2449103 2444771 2402022 2305278 2156073 1972468 1779792 
1929.546 1602199 1452105 1327454 1216794 1110381 1007581 923698 883788 
1933.403 915530 1035878 1241383 1507960 1796926 2067574 2282161 2418215 
1937.261 2468463 2440706 2352548 2225341 2078127 1926371 1782387 1658073 
1941.118 1565485 1517037 1521593 1581747 1692367 1843143 2021566 2214617 
1944.975 2410952 2597942 2760436 2880663 2938070 2914052 2798352 2597142 
1948.833 2336724 2060915 1828735 1693631 1692932 1834225 2090579 2402755 
1952.690 2694651 2898842 2971797 2910283 2746065 2539480 2353681 2234333 
1956.548 2198631 2230836 2291621 2335658 2332294 2272335 2173922 2070870 
1960.405 2004157 2004023 2079958 2218480 2391227 2560711 2690450 2754301 
1964.263 2741563 2658545 2525816 2372337 2228072 2114119 2037911 1993106 
1968.120 1965978 1944743 1930764 1941548 2005089 2146883 2377934 2680148 
1971.977 3009464 3301835 3496023 3556151 3475849 3280501 3014702 2730660 
1975.835 2466930 2241893 2054989 1894422 1748585 1611345 1481395 1356603 
1979.692 1231115 1097459 954612 818983 723819 721263 858091 1159847 1610280 
1984.032 2152144 2696785 3150652 3445790 3549803 3477152 3278398 3023344 
1987.889 2769507 2545046 2348117 2157172 1951666 1729790 1514643 1348758 
1991.747 1272453 1299803 1409620 1549258 1658140 1686812 1619892 1479466 
1995.604 1318414 1198320 1173136 1272187 1490937 1794764 2130767 2445871 
1999.462 2697252 2861952 2933667 2919256 2833135 2694851 2532114 2375302 
2003.319 2258580 2212086 2251052 2371904 2546146 2728926 2866121 2916754 
2007.176 2865087 2726059 2535181 2336724 2168527 2046267 1966211 1906469 
2011.034 1842344 1753343 1633328 1486415 1323466 1153734 981112 804377 
2014.891 623599 449497 308189 240188 291014 492982 846869 1315091 1829234 
2019.231 2309875 2679115 2886600 2916020 2791682 2566477 2308542 2079526 
2023.088 1913724 1817954 1773969 1753875 1733316 1705905 1682887 1688275 
2026.946 1741533 1848001 1988712 2126705 2215283 2219213 2126771 1956059 
2030.803 1750149 1559400 1433255 1403636 1478802 1645667 1878216 2143420 
2034.661 2407387 2639243 2807189 2884432 2854847 2722324 2516184 2286791 
2038.518 2098603 2012146 2064577 2257247 2551178 2874859 3143710 3290984 
2042.375 3281236 3118846 2841607 2512585 2198165 1951766 1808538 1778461 
2046.233 1850862 1999330 2187309 2373603 2517317 2590842 2582342 2501354 
2050.090 2373603 2236631 2126938 2069138 2072934 2127737 2210687 2292421 
2053.948 2350183 2373970 2368972 2351082 2340688 2352315 2389195 2443771 
2057.805 2501521 2548412 2575809 2584409 2582642 2582576 2594009 2620075 
2061.662 2656545 2695351 2727359 2747532 2757836 2766405 2784713 2821696 
2065.520 2880429 2956318 3037224 3106499 3149250 3155959 3125555 3065954 
2069.377 2993616 2929530 2893872 2902044 2959554 3060214 3185497 3310582 
2073.235 3408319 3455342 3439578 3362169 3238404 3090547 2945709 2826999 
2077.092 2748799 2717290 2730227 2779977 2855781 2946410 3040861 3127156 
2080.949 3193207 3227322 3221213 3173081 3090047 2988578 2888468 2810557 
2084.807 2768473 2765238 2792282 2833569 2869323 2883265 2867788 2823564 
2088.664 2758802 2684082 2609142 2539713 2477860 2423080 2376668 2342854 
2092.522 2329462 2345019 2395192 2479993 2590209 2708188 2810958 2877895 
2096.379 2892571 2849778 2755802 2627609 2486324 2353781 2244857 2166130 
2100.237 2114518 2080658 2055222 2032951 2016273 2014609 2041074 2104896 
2104.094 2205625 2329229 2450136 2537047 2561344 2508119 2380466 2200396 
2107.951 2001227 1823045 1700283 1652319 1683751 1783718 1931264 2100501 
2111.809 2269304 2420314 2543280 2636210 2701819 2747032 2779044 2803721 
2115.666 2823864 2837604 2838972 2820629 2775342 2699185 2594675 2470296 
2119.524 2341055 2223242 2132964 2078893 2061814 2071868 2091944 2101400 
2123.381 2080225 2015208 1903740 1755572 1589728 1432291 1309142 1237993 
2127.239 1225400 1263746 1334068 1410252 1468794 1496024 1492832 1474213 
2131.096 1464605 1490870 1570041 1704940 1879713 2064944 2222543 2318602 
2134.953 2332094 2261377 2124773 1955993 1797192 1685248 1644503 1681090 
2138.811 1781355 1912593 2030687 2093376 2064910 1929433 1694462 1393465 
2142.668 1078459 810585 646893 622869 741377 970187 1250288 1506730 1668118 
2147.008 1692367 1573267 1348094 1082677 856231 730855 738389 868416 1077462 
2151.347 1300135 1471554 1550821 1525450 1413908 1251551 1082744 944684 
2155.205 863602 855667 928645 1088058 1333038 1650789 2007552 2348917 
2159.062 2613175 2748566 2732894 2579809 2332927 2049130 1780923 1568345 
2162.920 1430629 1366773 1368568 1426108 1533131 1686712 1881743 2105329 
2166.777 2336358 2550712 2725592 2849178 2924226 2964625 2990113 3018673 
2170.635 3061215 3116544 3175951 3225753 3254728 3256298 3229725 3178221 
2174.492 3106399 3016370 2909182 2784479 2644477 2494689 2345019 2210021 
2178.349 2105395 2046600 2045668 2109657 2237397 2417082 2624142 2825765 
2182.207 2985509 3071960 3069658 2983107 2838838 2675348 2537780 2462798 
2186.064 2466397 2544612 2676515 2835503 2998954 3158195 3317527 3490779 
2189.922 3687224 3904419 4120084 4297773 4392953 4369491 4212750 3936015 
2193.779 3578099 3191639 2831635 2537847 2330995 2213251 2171990 2190006 
2197.636 2249387 2336358 2437141 2534814 2608242 2631176 2582609 2453801 
2201.494 2255815 2019602 1791104 1620989 1545267 1580849 1715851 1916753 
2205.351 2133797 2319002 2436974 2470196 2421080 2308676 2162400 2011413 
2209.209 1881577 1789440 1740535 1730854 1750249 1785614 1825208 1863274 
2213.066 1900645 1944743 2005255 2089347 2197166 2320768 2444271 2549379 
2216.924 2622109 2655878 2655211 2633076 2608542 2599408 2619009 2671480 
2220.781 2751533 2844408 2928396 2981038 2980305 2913318 2779010 2592242 
2224.638 2381099 2180549 2027259 1947139 1951167 2031719 2167928 2330895 
2228.496 2493089 2636610 2754334 2848744 2927595 2999422 3068690 3136134 
2232.353 3197680 3247117 3276495 3277697 3242210 3163902 3040427 2875260 
2236.211 2679448 2470096 2265174 2082056 1931863 1818487 1740701 1695161 
2240.068 1679827 1695760 1744859 1827005 1936555 2061847 2186276 2295851 
2243.926 2382465 2447370 2498921 2547212 2599175 2654378 2706587 2747365 
2247.783 2773575 2789181 2805288 2833702 2880930 2943574 3008396 3057979 
2251.640 3080136 3074529 3054742 3042496 3058980 3114742 3203488 3304105 
2255.498 3387648 3429993 3417636 3351651 3243846 3110970 2966659 2819662 
2259.355 2675548 2540446 2425945 2350249 2333160 2390894 2528048 2734861 
2263.213 2986677 3251591 3497125 3694308 3824153 3876403 3849692 3750653 
2267.070 3593133 3400304 3201051 3029583 2917388 2885033 2936635 3056877 
2270.927 3216106 3375292 3501368 3574124 3590260 3562565 3513960 3468401 
2274.785 3442049 3441114 3461554 3493151 3523681 3544158 3551474 3547799 
2278.642 3539414 3533802 3537878 3555282 3585416 3622601 3658420 3681510 
2282.500 3682312 3654577 3598479 3520207 3431930 3348145 3281937 3242177 
2286.357 3232229 3249220 3287512 3340265 3401606 3467399 3534771 3600483 
2290.215 3659456 3705236 3730200 3728094 3696882 3639808 3566173 3488742 
2294.072 3422645 3380969 3372654 3401172 3464994 3558155 3671585 3795407 
2297.929 3919230 4032287 4124867 4188093 4214958 4202780 4153936 4076100 
2301.787 3981690 3885897 3803095 3744504 3716297 3718937 3748280 3797613 
2305.644 3859688 3927890 3996203 4059443 4111888 4147614 4162768 4155810 
2309.502 4130554 4095398 4063123 4045263 4050079 4077772 4121388 4167719 
2313.359 4203148 4218437 4211746 4190267 4165444 4150692 4155140 4181034 
2317.217 4223958 4275921 4328359 4376787 4422175 4470512 4529971 4606952 
2321.074 4703507 4815796 4935722 5051390 5151899 5227515 5271750 5281678 
2324.931 5257832 5203638 5126049 5034629 4941620 4858046 4794354 4756398 
2328.789 4745478 4759045 4792847 4843538 4908577 4986597 5075291 5168195 
2332.646 5256457 5327830 5371506 5381435 5358221 5309583 5247066 5182848 
2336.504 5124674 5074788 5030774 4989144 4949127 4914475 4892995 4892794 
2340.361 4918396 4966588 5027322 5086958 5134028 5162897 5177080 5186000 
2344.219 5201895 5230633 5271347 5314078 5345608 5353793 5331990 5279397 
2348.076 5199782 5099261 4984050 4862335 4741793 4633341 4548855 4500274 
2351.933 4496324 4539045 4622256 4731979 4851345 4966655 5069928 5162126 
2355.791 5249313 5339101 5433470 5526786 5605152 5652917 5657012 5615188 
2359.648 5537357 5445717 5367245 5326589 5340845 5414044 5537122 5689843 
2363.506 5847790 5985335 6082566 6129476 6125242 6077325 5996723 5895749 
2367.363 5782341 5659765 5527860 5385763 5235697 5084913 4945139 4829466 
2371.220 4748359 4703842 4690042 4693726 4699856 4694262 4669779 4626810 
2375.078 4570519 4508343 4445740 4384083 4321298 4252733 4175146 4087839 
2378.935 3994263 3900441 3812721 3736817 3674927 3626945 3590226 3561696 
2382.793 3538078 3516766 3496591 3476250 3455141 3432497 3407785 3380468 
2386.650 3350449 3318128 3284508 3251123 3220545 3195744 3180357 3177854 
2390.508 3189836 3215906 3252091 3292119 3327543 3350716 3356226 3342402 
2394.365 3311951 3270486 3225686 3184496 3152821 3134932 3133230 3149317 
2398.222 3183862 3236201 3303137 3379132 3455809 3523213 3572888 3599581 
2402.080 3603089 3588489 3564402 3540750 3524115 3517468 3519104 3523547 
2405.937 3525618 3522478 3515330 3509417 3510987 3525084 3552543 3589258 
2409.795 3627112 3657050 3672153 3670483 3655012 3632725 3611809 3597777 
2413.652 3592198 3591730 3590627 3582075 3561730 3528825 3485736 3437006 
2417.510 3387214 3340065 3297695 3261539 3232596 3213235 3206526 3216506 
2421.367 3245682 3295759 3365108 3449998 3543824 3637804 3722614 3787519 
2425.224 3823083 3822849 3784611 3712220 3615685 3510286 3411391 3333186 
2429.082 3283473 3262974 3265244 3279633 3295692 3305240 3304940 3296426 
2432.939 3284307 3273824 3269451 3272856 3283306 3297728 3311851 3321100 
2436.797 3321400 3310549 3289248 3262874 3240574 3234132 3255329 3310916 
2440.654 3400104 3512090 3629417 3729866 3794404 3812487 3784878 3723549 
2444.511 3647460 3577765 3530863 3514528 3527623 3561295 3602688 3638706 
2448.369 3660057 3661928 3645021 3614115 3577364 3543690 3521109 3515530 
2452.226 3529159 3559658 3600650 3644419 3682011 3707040 3716598 3711151 
2456.084 3693941 3668377 3637303 3602087 3562799 3520040 3475615 3433633 
2459.941 3399336 3377496 3370717 3377864 3394727 3414497 3431128 3441348 
2463.799 3445522 3447627 3453137 3466864 3490746 3521877 3554080 3579235 
2467.656 3589759 3581206 3553311 3510787 3461521 3414230 3377029 3354990 
2471.513 3349647 3359331 3379934 3406382 3433967 3459483 3480525 3496123 
2475.371 3506278 3511088 3511054 3507413 3501802 3496791 3495555 3501034 
2479.228 3515330 3538446 3568478 3602287 3635665 3665370 3690031 3710850 
2483.086 3730668 3752959 3780065 3811518 3843274 3868714 3880147 3871689 
2486.943 3840867 3789725 3724853 3654611 3587019 3527856 3479289 3440747 
2490.801 3410489 3386913 3370384 3362002 3362336 3370117 3381069 3389050 
2494.658 3388149 3376394 3357394 3341166 3340833 3367746 3427154 3514862 
2498.515 3615852 3708979 3774182 3796309 3771876 3709046 3625007 3540116 
2502.373 3471240 3428022 3410356 3410857 3417903 3421744 3416935 3404412 
2506.230 3390386 3384008 3393425 3422178 3468534 3524984 3581307 3626744 
2510.088 3654444 3663833 3660892 3656215 3661962 3687391 3735213 3800120 
2513.945 3869951 3930230 3967044 3972495 3946447 3896295 3833479 3770640 
2517.802 3718202 3681510 3662162 3658219 3666807 3685119 3711017 3742699 
2521.660 3778026 3814426 3849024 3879445 3904152 3922941 3936215 3943839 
2525.517 3944541 3936115 3916188 3882822 3837190 3782539 3725053 3671585 
2529.375 3628248 3599448 3587353 3591797 3611809 3645422 3690566 3744069 
2533.232 3801891 3858651 3909100 3949523 3979048 4000684 4020247 4045463 
2537.090 4081885 4131457 4190702 4251595 4303595 4337094 4346732 4333279 
2540.947 4303093 4266351 4234129 4214757 4212014 4223824 4245070 4267556 
2544.804 4283752 4288470 4279401 4257283 4224293 4184011 4139619 4094061 
2548.662 4049745 4008543 3971659 3940127 3913747 3892350 3875400 3862730 
2552.519 3855242 3854372 3862195 3880248 3908531 3945009 3985335 4024194 
2556.377 4056166 4076935 4085063 4081083 4067972 4049477 4030414 4015265 
2560.234 4008175 4012756 4031250 4063825 4108410 4160460 4213586 4260964 
2564.092 4297538 4321298 4333446 4337964 4339738 4343084 4349376 4357777 
2567.949 4366077 4371901 4374578 4375649 4378327 4386594 4402359 4426258 
2571.806 4455883 4487753 4517483 4541723 4557963 4565095 4562751 4551367 
2575.664 4531846 4506167 4477576 4450058 4427898 4414409 4410894 4416316 
2579.521 4427262 4439447 4449255 4454276 4454812 4453138 4453540 4460068 
2583.379 4476974 4506702 4550060 4605512 4669612 4737271 4802194 4858080 
2587.236 4899664 4923657 4929522 4919368 4897418 4868835 4839182 4813283 
2591.094 4794522 4784974 4785275 4794187 4809129 4826216 4841159 4850373 
2594.951 4852283 4848262 4842935 4842499 4853824 4881803 4927444 4987268 
2598.808 5054407 5120416 5176812 5218628 5244182 5255853 5258335 5256993 
2602.666 5256255 5258234 5262728 5267759 5271113 5271079 5267323 5261487 
2606.523 5256389 5254545 5258066 5267256 5280772 5295999 5310523 5322531 
2610.381 5332157 5340744 5349869 5360737 5372948 5384388 5391667 5391835 
2614.238 5383146 5366205 5344066 5320250 5298682 5281543 5268899 5259508 
2618.095 5251493 5243344 5234825 5227079 5222518 5223122 5231204 5248240 
2621.953 5274131 5308275 5348594 5391533 5432766 5466821 5489168 5496652 
2625.810 5488833 5468633 5441824 5414883 5393949 5383347 5384354 5396297 
2629.668 5417064 5443838 5474740 5507390 5540176 5570213 5593975 5608340 
2633.525 5610824 5601594 5583537 5562359 5544237 5535679 5540881 5560614 
2637.383 5592498 5631669 5671346 5703943 5723818 5726471 5710758 5679033 
2641.240 5637408 5594277 5559104 5540511 5544438 5572092 5620693 5683901 
2645.097 5753800 5821999 5881543 5927624 5957285 5969378 5964440 5944823 
2648.955 5914760 5880266 5848361 5825189 5815182 5819380 5835264 5857227 
2652.812 5879057 5895481 5903474 5903172 5896958 5888461 5880871 5876269 
2656.670 5875564 5879191 5887084 5899545 5916809 5938205 5962559 5987082 
2660.527 6008751 6025515 6035863 6040768 6042348 6043792 6047555 6054980 
2664.385 6066001 6078837 6091706 6102829 6111095 6116303 6118723 6118622 
2668.242 6115934 6110893 6103332 6093655 6082667 6071680 6062003 6054812 
2672.099 6050545 6049302 6050545 6053502 6057366 6061700 6066236 6070705 
2675.957 6075040 6078971 6082096 6083911 6083776 6081390 6076585 6069630 
2679.814 6061432 6052931 6045539 6040231 6037375 6036837 6037509 6037913 
2683.672 6036199 6030689 6020106 6003846 5982177 5956277 5928128 5900653 
2687.529 5877512 5861794 5855850 5860686 5875295 5896354 5919664 5940489 
2691.386 5955034 5961249 5959469 5952112 5942505 5934913 5932227 5936257 
2695.244 5947040 5963331 5982782 6002401 6019669 6032234 6038584 6037644 
2699.101 6029446 6014663 5994809 5972166 5949659 5930177 5916742 5911099 
2702.959 5913853 5923762 5938608 5955102 5969949 5981371 5988963 5994338 
2706.816 6000117 6008986 6022558 6040667 6061667 6082802 6102056 6118555 
2710.674 6133039 6147086 6162478 6179954 6198372 6215178 6227883 6235648 
2714.531 6239715 6244219 6254572 6276187 6311687 6359967 6416827 6474905 
2718.388 6526432 6565653 6589235 6598048 6595458 6586980 6578200 6573592 
2722.246 6575442 6583347 6594987 6606257 6612784 6611102 6600201 6581396 
2726.103 6559228 6539550 6528013 6528719 6542241 6565821 6593642 6619209 
2729.961 6636603 6641784 6634046 6614634 6586442 6552164 6513852 6472854 
2733.818 6429841 6385992 6343189 6304157 6271985 6249060 6235984 6231648 
2737.676 6232387 6233261 6228891 6215446 6190676 6155790 6114355 6072453 
2741.533 6036031 6010632 5999210 6001191 6013488 6030588 6047152 6058643 
2745.390 6062742 6059382 6050714 6039223 6027363 6017116 6009086 6003611 
2749.248 6000352 5999344 6000217 6002401 6005156 6007910 6010497 6013387 
2753.105 6018325 6027228 6042011 6063347 6090228 6119866 6148464 6172728 
2756.963 6190709 6202439 6209565 6214808 6220757 6228992 6239782 6252186 
2760.820 6265127 6277296 6288121 6296962 6303955 6308863 6311721 6312561 
2764.677 6311754 6309905 6307418 6304762 6302039 6299081 6296088 6294508 
2768.535 6296794 6306309 6326715 6360102 6406100 6461957 6522699 6582170 
2772.392 6635324 6679300 6713857 6740980 6764033 6786413 6810444 6837371 
2776.250 6867497 6900925 6937655 6978126 7022708 7071235 7123271 7177064 
2780.107 7230595 7281773 7329285 7372420 7411279 7447008 7480784 7514158 
2783.965 7547972 7583273 7620027 7658437 7698198 7739380 7782590 7828875 
2787.822 7879854 7936947 8001540 8073771 8152970 8237315 8324615 8413048 
2791.679 8501127 8588041 8673722 8758169 8841212 8922072 9000039 9074601 
2795.537 9145421 9212867 9277550 9340243 9401896 9463287 9525602 9590533 
2799.394 9660556 9738010 9824766 9920962 10024776 10132446 10239703 10342675 
2803.252 10439971 10532672 10624713 10721562 10828014 10947640 11081473 
2806.627 11227963 11384331 11547119 11713304 11880744 12047874 12213774 
2810.002 12377862 12539692 12699502 12857937 13016396 13176791 13341243 
2813.377 13511774 13690543 13879000 14079004 14291701 14517760 14756517 
2816.753 15006039 15263323 15524743 15787659 16051356 16318135 16592342 
2820.128 16880260 17188224 17520658 17879622 18264280 18672178 19099986 
2823.503 19544990 20006136 20483954 20980486 21499312 22045076 22622346 
2826.878 23236914 23893726 24597506 25352370 26160876 27024976 27946734 
2830.254 28928710 29975246 31092572 32288228 33570184 34946352 36423096 
2833.629 38005760 39699084 41507084 43434320 45484920 47661712 49964288 
2837.004 52388756 54926664 57564864 60289108 63084036 65934704 68829208 
2840.379 71756696 74707288 77672032 80640680 83602680 86547304 89462872 
2843.755 92337688 95160136 97917960 100599584 103193144 105686256 108065448 
2847.130 110313512 112407736 114320008 116015312 117455128 118603336 
2850.023 119427432 119905664 120026560 119791176 119209384 118300584 
2852.916 117093336 115620952 113925416 112053216 110050256 107963304 
2855.809 105832464 103690248 101564184 99475024 97440896 95479080 93604952 
2859.184 91833224 90176952 88645336 87245464 85981448 84854704 83864696 
2862.560 83007600 82275968 81658064 81139168 80701800 80327864 80002112 
2865.935 79710576 79440832 79180872 78916112 78628080 78296784 77899728 
2869.310 77417648 76837024 76151432 75362576 74479136 73515568 72488744 
2872.685 71418576 70326288 69232824 68160512 67130632 66161996 65271096 
2876.061 64470416 63768252 63169940 62678324 62295136 62022348 61861852 
2879.436 61816080 61886992 62075552 62380928 62800100 63328124 63957436 
2882.811 64679796 65485632 66365584 67311080 68313624 69365544 70459784 
2886.186 71589128 72746808 73927176 75125896 76340560 77569976 78814192 
2889.562 80071840 81339840 82612312 83881784 85140016 86380112 87598536 
2892.937 88794912 89971840 91132600 92280064 93415296 94537888 95647000 
2896.312 96742344 97825352 98899872 99970352 101041656 102118056 103202768 
2899.687 104297640 105403944 106522552 107652840 108793744 109942984 
2902.580 111098144 112258184 113425032 114604424 115805160 117038016 
2905.473 118313592 119638312 121014624 122439680 123907992 125412104 
2908.366 126946208 128506560 130091712 131702320 133339200 135001712 
2911.260 136686752 138387312 140092032 141787264 143455648 145080000 
2914.153 146644448 148134416 149538032 150842624 152032576 153087728 
2917.046 153980256 154677664 155146944 155357840 155288096 154925584 
2919.939 154267296 153317584 152086048 150586736 148836960 146859104 
2922.832 144680912 142332240 139844112 137246656 134565152 131823944 
2925.725 129046440 126256688 123480768 120743312 118064304 115456624 
2928.618 112923024 110458176 108051808 105694072 103379000 101106480 
2931.511 98882736 96717264 94621432 92604088 90672272 88829424 87076176 
2934.886 85411384 83832104 82334912 80916720 79574848 78308568 77118816 
2938.261 76007616 74977928 74032072 73172072 72398904 71713432 71117592 
2941.637 70613816 70204952 69893208 69678352 69557000 69521616 69561432 
2945.012 69664464 69817048 70006288 70219672 70444200 70667000 70874584 
2948.387 71053320 71191168 71277640 71304232 71263704 71148544 70950224 
2951.762 70660368 70270816 69776696 69177640 68479120 67690392 66823296 
2955.138 65889508 64898192 63855828 62766948 61634544 60462316 59254844 
2958.513 58017432 56756956 55480392 54195336 52910140 51631612 50365428 
2961.888 49113948 47876160 46647684 45422964 44197548 42970380 41743936 
2965.263 40523788 39315940 38125260 36953424 35799704 34662612 33542518 
2968.639 32442440 31368508 30327566 29326050 28366134 27446554 26562876 
2972.014 25709678 24882466 24079556 23301340 22549332 21825030 21128756 
2975.389 20460266 19819198 19207126 18627490 18084654 17582518 17121974 
2978.764 16699759 16307745 15935093 15570864 15206254 14837699 14465927 
2982.140 14096459 13735616 13389696 13062662 12755048 12465248 12190226 
2985.515 11926786 11673274 11429742 11198246 10982369 10785110 10608687 
2988.890 10452733 10314920 10190176 10072928 9958321 9843271 9726998 9611400 
2992.748 9499218 9393127 9294373 9202715 9116692 9034950 8957248 8884938 
2996.605 8820213 8764998 8719865 8682747 8649250 8613930 8571482 8519104 
3000.462 8456258 8386260 8313537 8244036 8182850 8133354 8097131 8073197 
3004.320 8059392 8051493 8045215 8036473 8022499 8002518 7977409 7949635 
3008.177 7920952 7892372 7862208 7826952 7782489 7726024 7658133 7583880 
3012.035 7511258 7449772 7407471 7387991 7389204 7404674 7425436 7442087 
3015.892 7447918 7439761 7417414 7382834 7338248 7285951 7227462 7164702 
3019.750 7100368 7038299 6983244 6939406 6909005 6891533 6883117 6877933 
3023.607 6868811 6850061 6817849 6771268 6712343 6645014 6574668 6506554 
3027.464 6445579 6395037 6356874 6330918 6315386 6306947 6301366 6294676 
3031.322 6284322 6269766 6252723 6236186 6223446 6216623 6215480 6217295 
3035.179 6218337 6214237 6201968 6181063 6153606 6122924 6092950 6066472 
3039.037 6044162 6025213 6007541 5989366 5969882 5949357 5928834 5908949 
3042.894 5889435 5868948 5845607 5818036 5786942 5755177 5727075 5707334 
3046.751 5699243 5702802 5714586 5728686 5738490 5738322 5725430 5700418 
3050.609 5666478 5628044 5589377 5553801 5523229 5498296 5479438 5466922 
3054.466 5461083 5461553 5467425 5475613 5482357 5483162 5474438 5454272 
3058.324 5423673 5386367 5348091 5315587 5294154 5287178 5294255 5311730 
3062.181 5333734 5353055 5363958 5363253 5350439 5327629 5298213 5265311 
3066.039 5230332 5192908 5151530 5104692 5052597 4997390 4943195 4895274 
3069.896 4858348 4835463 4827623 4833017 4848497 4869170 4890247 4906935 
3073.753 4915212 4912699 4898960 4875671 4846788 4817907 4794153 4779279 
3077.611 4774321 4777101 4783533 4788693 4789162 4783634 4773349 4760787 
3081.468 4748627 4738812 4731643 4727054 4725011 4726217 4731811 4742664 
3085.326 4758073 4775158 4789028 4793818 4784940 4760519 4722097 4673731 
3089.183 4620448 4566468 4514202 4463984 4415781 4369759 4327958 4293155 
3093.041 4268894 4256848 4255979 4263106 4272943 4280338 4282681 4279736 
3096.898 4273612 4268326 4267288 4272709 4285190 4303897 4327322 4353526 
3100.755 4380670 4406007 4426057 4437037 4435464 4419229 4389138 4349309 
3104.613 4306574 4268894 4243799 4236405 4248283 4276791 4316312 4359651 
3108.470 4399045 4428568 4444569 4446242 4435430 4416384 4394393 4374779 
3112.328 4362027 4358881 4365608 4380636 4401187 4423915 4445673 4464152 
3116.185 4477710 4485477 4486347 4479852 4465524 4443631 4415547 4383983 
3120.042 4352522 4324912 4304365 4292418 4288871 4291716 4297806 4304231 
3123.900 4308414 4309485 4307912 4304532 4300784 4297003 4292653 4287031 
3127.757 4279201 4269195 4258354 4249521 4245572 4248885 4260630 4279268 
3131.615 4301922 4325280 4346431 4364671 4380937 4397137 4415279 4435497 
3135.472 4455850 4472220 4480421 4477107 4461406 4435597 4404267 4372603 
3139.330 4345394 4325983 4315140 4311894 4314605 4320361 4325916 4328158 
3143.187 4324008 4310690 4287198 4254707 4216765 4178625 4146510 4124633 
3147.044 4115200 4116906 4126439 4139686 4153000 4165143 4176417 4188293 
3150.902 4201709 4216330 4230315 4241691 4248918 4252666 4255008 4259659 
3154.759 4269597 4286094 4307276 4329899 4348539 4358848 4358379 4346666 
3158.617 4325548 4298141 4267723 4237542 4210274 4188561 4174610 4170796 
3162.474 4177956 4196457 4224192 4257451 4291984 4322770 4346130 4359685 
3166.332 4363031 4357509 4344758 4327556 4308213 4289239 4272609 4260128 
3170.189 4252967 4251930 4256581 4265414 4275620 4284621 4289741 4290043 
3174.046 4286763 4283082 4283785 4293489 4315241 4348573 4389037 4429673 
3177.904 4461976 4478881 4477576 4459298 4430242 4397974 4370227 4351987 
3181.761 4344155 4344289 4348004 4350614 4348339 4339939 4326050 4308481 
3185.619 4289306 4270434 4253235 4238178 4225597 4214423 4202747 4188093 
3189.476 4167552 4139586 4105266 4068875 4037370 4018943 4019579 4041885 
3193.333 4082956 4135672 4189999 4236539 4269597 4287366 4292117 4288001 
3197.191 4279368 4268560 4255979 4240621 4222017 4200873 4179495 4161430 
3201.048 4149454 4145272 4147948 4155341 4163872 4170194 4171533 4165979 
3204.906 4152732 4131858 4104128 4071618 4037470 4005834 3980955 3966509 
3208.763 3963399 3970689 3984900 4001855 4017405 4029344 4037236 4043189 
3212.621 4049176 4057771 4069845 4085264 4101653 4116036 4124733 4124499 
3216.478 4112825 4089779 4057470 4020816 3986973 3964135 3958986 3974635 
3220.335 4009613 4058239 4110383 4155810 4185282 4193111 4177588 4140823 
3224.193 4088341 4027036 3964670 3909568 3868948 3848522 3851497 3877239 
3228.050 3920701 3973565 4025264 4065664 4087572 4087973 4068641 4034226 
3231.908 3991354 3946380 3904419 3869282 3843876 3830638 3831106 3845647 
3235.765 3872024 3905121 3937921 3963399 3975704 3973297 3958718 3938689 
3239.623 3920133 3909200 3908832 3918395 3934510 3953368 3972795 3991990 
3243.480 4012322 4035330 4061116 4088107 4112725 4130855 4139953 4139753 
3247.337 4132193 4120519 4108510 4098375 4090716 4084762 4079745 4075196 
3251.195 4071383 4069210 4068273 4067303 4062788 4050513 4026702 3990652 
3255.052 3944808 3895158 3849960 3817401 3803429 3810114 3836220 3877473 
3258.910 3927790 3981289 4033123 4078909 4115200 4139050 4148015 4140388 
3262.767 4117374 4082354 4041617 4003293 3975905 3965205 3973665 3999012 
3266.625 4035531 4074762 4108276 4130219 4137077 4129283 4109179 4081183 
3270.482 4049677 4018843 3991856 3971425 3959086 3956177 3962563 3977009 
3274.339 3996203 4016067 4031484 4038541 4034761 4020749 3999480 3976239 
3278.197 3956979 3946748 3948587 3962463 3985803 4013492 4039945 4059845 
3282.054 4069711 4068139 4056032 4036266 4012288 3987776 3965573 3946915 
3285.912 3932638 3921972 3914516 3909568 3907729 3909300 3914817 3924212 
3289.769 3936717 3950392 3963165 3972628 3977510 3976909 3971960 3963767 
3293.626 3953836 3942969 3931568 3919498 3906559 3893654 3882387 3874665 
3297.484 3871990 3874932 3882220 3890912 3897833 3899872 3896462 3888538 
3301.341 3878643 3870151 3865538 3865237 3867878 3871020 3873127 3874163 
3305.199 3876604 3884493 3902447 3933239 3976541 4028541 4082454 4131056 
3309.056 4168020 4190200 4197962 4194416 4184045 4171131 4158787 4148617 
3312.914 4140288 4133330 4126640 4119147 4110417 4100282 4088742 4076200 
3316.771 4063858 4052554 4043992 4038641 4036567 4036601 4036701 4034795 
3320.628 4029444 4020615 4009412 3997808 3987174 3978480 3970756 3961995 
3324.486 3950793 3935948 3918662 3901444 3888204 3882454 3886666 3901477 
3328.343 3925382 3956478 3992324 4031484 4072788 4114932 4156245 4193412 
3332.201 4222854 4240754 4244569 4234531 4212850 4184112 4153133 4124332 
3336.058 4100282 4081183 4066233 4053557 4042253 4031751 4022421 4014529 
3339.916 4008175 4003092 3998410 3993963 3989783 3986673 3985202 3985101 
3343.773 3985268 3982961 3975839 3962095 3941899 3918395 3896596 3881852 
3347.630 3879311 3891146 3917191 3954003 3996738 4040313 4080046 4112725 
3351.488 4136474 4150591 4154773 4150089 4138047 4120853 4101352 4082421 
3355.345 4066735 4056166 4051650 4053624 4061851 4075932 4095198 4118444 
3359.203 4144235 4170429 4195119 4216731 4235167 4250591 4264042 4275654 
3363.060 4283952 4285860 4277393 4255778 4220478 4174912 4125570 4080782 
3366.917 4049042 4034761 4039276 4059543 4090414 4126172 4161965 4195018 
3370.775 4224192 4248918 4268393 4281677 4287499 4285826 4276892 4262403 
3374.632 4244636 4225330 4205791 4186219 4166648 4147246 4128948 4112758 
3378.490 4099747 4090348 4083792 4079377 4076166 4075263 4078508 4088609 
3382.347 4107875 4136240 4171265 4207932 4239951 4262169 4271471 4267355 
3386.205 4251629 4226702 4194984 4158151 4117709 4075999 4036133 4002289 
3390.062 3978580 3966743 3966509 3974166 3985369 3995735 4003694 4010717 
3393.919 4021117 4038641 4065463 4100048 4137679 4171298 4194449 4203750 
3397.777 4199769 4187022 4171934 4161697 4160393 4169592 4187022 4208735 
3401.634 4229144 4243397 4248651 4244569 4233460 4219843 4209036 4204888 
3405.492 4208534 4217501 4226401 4228207 4217133 4190702 4151294 4105767 
3409.349 4063290 4033256 4022120 4031952 4060079 4101419 4148818 4195788 
3413.207 4237040 4268861 4288269 4294426 4287466 4269597 4245505 4221549 
3417.064 4204386 4199367 4208768 4231252 4261867 4293455 4319558 4335086 
3420.921 4338566 4331003 4315609 4296133 4275520 4256547 4241022 4230349 
3424.779 4225732 4227103 4233527 4242829 4252097 4257986 4258321 4251930 
3428.636 4239483 4222218 4201943 4181134 4161697 4145941 4136107 4133965 
3432.494 4140020 4152899 4169224 4184412 4193880 4195386 4189331 4179093 
3436.351 4169592 4165678 4169626 4180699 4195587 4210809 4223958 4234798 
3440.208 4245070 4256648 4269463 4280472 4283617 4272977 4245439 4202947 
3444.066 4153334 4107741 4078641 4073758 4095298 4137545 4189699 4238412 
3447.923 4273311 4290277 4291113 4281576 4268894 4258990 4254908 4256949 
3451.781 4263407 4271672 4279268 4284655 4286763 4284856 4278699 4267020 
3455.638 4249287 4224259 4191840 4152866 4109112 4064594 4025030 3996003 
3459.496 3983596 3991120 4018374 4060748 4109881 4155609 4188561 4203516 
3463.353 4200170 4183543 4160627 4138448 4120753 4106737 4092254 4071484 
3467.210 4041049 4001319 3957681 3918762 3893787 3889241 3906692 3942601 
3471.068 3990050 4040714 4087672 4127543 4159623 4185516 4207029 4225095 
3474.925 4239148 4247714 4249755 4245205 4236003 4224995 4215694 4211278 
3478.783 4213520 4223122 4239249 4260998 4286261 4313099 4339203 4362831 
3482.640 4382745 4398543 4410927 4421873 4432518 4444033 4455582 4465022 
3486.498 4468872 4463214 4445974 4416818 4377724 4332710 4286562 4243197 
3490.355 4205423 4174644 4150624 4132728 4119816 4111286 4107406 4109213 
3494.212 4118779 4138481 4169526 4211278 4259793 4307878 4345628 4363634 
3498.070 4354865 4318052 4257652 4183442 4109581 4049510 4014495 4009680 
3501.927 4034059 4080548 4138415 4197193 4248249 4286830 4311526 4323540 
3505.785 4326117 4322770 4319089 4320495 4332041 4356940 4394627 4439715 
3509.642 4483769 4518052 4536433 4537739 4525619 4506669 4487753 4473023 
3513.500 4463348 4457222 4451933 4445171 4436936 4428568 4421271 4414944 
3517.357 4406543 4391615 4365675 4326853 4277427 4224058 4175447 4139485 
3521.214 4120218 4116705 4122593 4129717 4129617 4119348 4101620 4084327 
3525.072 4076835 4087505 4119314 4170061 4231653 4293355 4344323 4377055 
3528.929 4389205 4382912 4363533 4336424 4305670 4273546 4240855 4208334 
3532.787 4178023 4153903 4141325 4144637 4165846 4201843 4244468 4281175 
3536.644 4299479 4291816 4257150 4201609 4136006 4072220 4019646 3982861 
3540.501 3961226 3950760 3945611 3940863 3935380 3931635 3935714 3955073 
3544.359 3997073 4064694 4155609 4259893 4362362 4445439 4493679 4499203 
3548.216 4463114 4395464 4311392 4230382 4169994 4142094 4151628 4193245 
3552.074 4253871 4315843 4364772 4392317 4397706 4384720 4358647 4323975 
3555.931 4282513 4236170 4187992 4142930 4107574 4088575 4089344 4107808 
3559.789 4136040 4161764 4171867 4157282 4114598 4047069 3962931 3874397 
3563.646 3795039 3738822 3721143 3755733 3852099 4009212 4209672 4419229 
3567.503 4597040 4715364 4765745 4758810 4714125 4651928 4587596 4529837 
3571.361 4482028 4443162 4410291 4380937 4354095 4330535 4312329 4301018 
3575.218 4297070 4300014 4308380 4320930 4336893 4355534 4375482 4395062 
3579.076 4411229 4420769 4421170 4410560 4387096 4349176 4294727 4222017 
3582.933 4131056 4026200 3916823 3818805 3754229 3747311 3818805 3976708 
3586.791 4206125 4464185 4693559 4848128 4907940 4881736 4794455 4675841 
3590.648 4550864 4439112 4355501 4308949 4304231 4339738 4407714 4493110 
3594.505 4577116 4642484 4677013 4677181 4648713 4603369 4555284 4518621 
3598.363 4504961 4519894 4563554 4628619 4702938 4769999 4813920 4823234 
3602.220 4792579 4723537 4622859 4501614 4371767 4246643 4140488 4066768 
3606.078 4037571 4060614 4134735 4245572 4366311 4465993 4518420 4514402 
3609.935 4463214 4389573 4323206 4293155 4319223 4403296 4525752 4648813 
3613.792 4733184 4750201 4694765 4582373 4443029 4310355 4217902 4194516 
3617.650 4256848 4403965 4611205 4837004 5032014 5159008 5204309 5175806 
3621.507 5094601 4984921 4867294 4753049 4643656 4532349 4407982 4262001 
3625.365 4095131 3921002 3772812 3699555 3757872 3991388 4389071 4856739 
3629.222 5243880 5446388 5455145 5332929 5155923 4987200 4865485 4804170 
3633.080 4796565 4819448 4844677 4848262 4821358 4769564 4707560 4650320 
3636.937 4608258 4584918 4578388 4583746 4596805 4616262 4641512 4671152 
3640.794 4698951 4713187 4699387 4644426 4541790 4394861 4216363 4026000 
3644.652 3844611 3694810 3597009 3567843 3618692 3752926 3966610 4246978 
3648.509 4576245 4927913 5261990 5528598 5679839 5690548 5570548 5354196 
3652.367 5087862 4815863 4580899 4417756 4352824 4399882 4548152 4756734 
3656.224 4960723 5103351 5155923 5125646 5040797 4934180 4831442 4746014 
3660.082 4683578 4643220 4622993 4621486 4638063 4670951 4713857 4756130 
3663.939 4782093 4776130 4727557 4633944 4503924 4355635 4218638 4128714 
3667.796 4124332 4238981 4482464 4819548 5160483 5397907 5455950 5330312 
3671.654 5071369 4753852 4449355 4219542 4125001 4212148 4491436 4895944 
3675.511 5289727 5540411 5609649 5549170 5439207 5340912 5281778 5263567 
3679.369 5268899 5273997 5260011 5221009 5162629 5096277 5030171 4965348 
3683.226 4895173 4810168 4704143 4580163 4451163 4340541 4274951 4280338 
3687.083 4375716 4564392 4828829 5129100 5419479 5661913 5837850 5944352 
3690.941 5986578 5971595 5907203 5803899 5675509 5537290 5404449 5287178 
3694.798 5189957 5109822 5037981 4962700 4875001 4773048 4664353 4564090 
3698.656 4491436 4466662 4505330 4613114 4780418 4981234 5176343 5325617 
3702.513 5404818 5409045 5351311 5252164 5133291 5011635 4897619 4797537 
3706.371 4713656 4646402 4596538 4566434 4561411 4590075 4662846 4789429 
3710.228 4972788 5202196 5448233 5667687 5818070 5870425 5820723 5686822 
3714.085 5499168 5290532 5091752 4927377 4811742 4750905 4740453 4768090 
3717.943 4816131 4868065 4913101 4947216 4972419 4992295 5007847 5016897 
3721.800 5013780 4995244 4963605 4930360 4912297 4926338 4984083 5083638 
3725.658 5207461 5323201 5396431 5402000 5334237 5206791 5046194 4882607 
3729.515 4741358 4642115 4592854 4588534 4610602 4635250 4644794 4639972 
3733.373 4643254 4692253 4820822 5036707 5304652 5555647 5724456 5781636 
3737.230 5742822 5646069 5528095 5408844 5289526 5157331 4996451 4798241 
3741.087 4571691 4343285 4161330 4086869 4177855 4458226 4871650 5274869 
3744.945 5511014 5520309 5347420 5081795 4799983 4557561 4388569 4309284 
3748.802 4326686 4437405 4631901 4891487 5186905 5475847 5705421 5831972 
3752.660 5834424 5722576 5529370 5298347 5070598 4874800 4729533 4639905 
3756.517 4601360 4603737 4638197 4700526 4789999 4903182 5026953 5135873 
3760.375 5202364 5206958 5149485 5047769 4933309 4839685 4794254 4812546 
3764.232 4889543 4998462 5097250 5149150 5137918 5075123 4990384 4921512 
3768.089 4900668 4945038 5051490 5194551 5336418 5439711 5486417 5478800 
3771.947 5433101 5368285 5300460 5239085 5185396 5135202 5081761 5020618 
3775.804 4952579 4886058 4836099 4822363 4860726 4957137 5097753 5250420 
3779.662 5371841 5427229 5405422 5319881 5200017 5078811 4986597 4942558 
3783.519 4951774 5004193 5079079 5151463 5202062 5224530 5222350 5205550 
3787.376 5183284 5162360 5145126 5131447 5120483 5111230 5102144 5090545 
3791.234 5072106 5041434 4994876 4934113 4868065 4812680 4786850 4808727 
3795.091 4885657 5007311 5140499 5241533 5273494 5222786 5104759 4957505 
3798.949 4832615 4782194 4853523 5065435 5384320 5709751 5920470 5944319 
3802.806 5789359 5519537 5213564 4943999 4764237 4714359 4810034 5030942 
3806.664 5310858 5559842 5708174 5732481 5656508 5523028 5372612 5229192 
3810.521 5099730 4978989 4855935 4723202 4584683 4456017 4366010 4348607 
3814.378 4431480 4620012 4879994 5137650 5308309 5347185 5264003 5109721 
3818.236 4945910 4835798 4833888 4975503 5258703 5621498 5952616 6141238 
3822.093 6148161 6007037 5786807 5550982 5348661 5210747 5149821 5161287 
3825.951 5221680 5295295 5342757 5339134 5280671 5183519 5073749 4980128 
3829.808 4926875 4927109 4979726 5067614 5164540 5241264 5277653 5267893 
3833.666 5218896 5146501 5070665 5013277 4992697 5022595 5108246 5244249 
3837.523 5411763 5582060 5724859 5816156 5846581 5822838 5762598 5686788 
3841.380 5614785 5561218 5532860 5528497 5539270 5551955 5551486 5527356 
3845.238 5475512 5398075 5301198 5191600 5074654 4951908 4821358 4679358 
3849.095 4523945 4358714 4198397 4069009 4014060 4089879 4352221 4818677 
3852.953 5418943 5995111 6387337 6545571 6521824 6401056 6247009 6093857 
3856.810 5950903 5813939 5676012 5534169 5391701 5257396 5140935 5048272 
3860.667 4979793 4931097 4896648 4876676 4879391 4917793 4999635 5114784 
3864.525 5228621 5293282 5272689 5157801 4972453 4762127 4585085 4495453 
3868.382 4535596 4713656 4986128 5258435 5435718 5483229 5433202 5354598 
3872.240 5312434 5351445 5478934 5662853 5838252 5940523 5931084 5812025 
3876.097 5615188 5384455 5162360 4981938 4871717 4851311 4926908 5082733 
3879.955 5277687 5451421 5545310 5532390 5422700 5257698 5089673 4976207 
3883.812 4965281 5082767 5315688 5602467 5850544 5977205 5955370 5811555 
3887.669 5602097 5381838 5198776 5086958 5065066 5135671 5281074 5466922 
3891.527 5646908 5782308 5850980 5848428 5783147 5669164 5522927 5359563 
3895.384 5194886 5044317 4920976 4836904 4800050 4812647 4868902 4954992 
3899.242 5050920 5134430 5190158 5214637 5218158 5220271 5245121 5311595 
3903.099 5425452 5573904 5728519 5856522 5932294 5947913 5911334 5839663 
3906.957 5749772 5655669 5566152 5485276 5415722 5359831 5319948 5296972 
3910.814 5288620 5287882 5284126 5266417 5228454 5172151 5106938 5048674 
3914.671 5014651 5016931 5058932 5132721 5223591 5313541 5391298 5452830 
3918.529 5498699 5528967 5539438 5522491 5472156 5389252 5284897 5178992 
3922.386 5096646 5060172 5080957 5154246 5257664 5359261 5428169 5448669 
3926.244 5421761 5361241 5284461 5207629 5141639 5091718 5060407 5049948 
3930.101 5063223 5104089 5173492 5266820 5371036 5468297 5540881 5576656 
3933.958 5573804 5539404 5486015 5426794 5372814 5329541 5297709 5273427 
3937.816 5251493 5227414 5200352 5173761 5154213 5150525 5169167 5212759 
3941.673 5275741 5345240 5402000 5428807 5415688 5364528 5286742 5200922 
3945.531 5126820 5080353 5071134 5100334 5160751 5237709 5314346 5377040 
3949.388 5417165 5432900 5427833 5408441 5381838 5354732 5333432 5322161 
3953.246 5324207 5340476 5368285 5402873 5436691 5462560 5474136 5468096 
3957.103 5445247 5409247 5366104 5322464 5284327 5256121 5240661 5238414 
3960.960 5248609 5268262 5293115 5318673 5340845 5357181 5367212 5372512 
3964.818 5375464 5378349 5382173 5386837 5390426 5391063 5387508 5379456 
3968.675 5369057 5358691 5351647 5350305 5355102 5365366 5379020 5392841 
3972.533 5404349 5411293 5413575 5411998 5408643 5406865 5409750 5419245 
3976.390 5435718 5457426 5480814 5501551 5515410 5520578 5517323 5509101 
3980.248 5501047 5499168 5507792 5529068 5561688 5601158 5640832 5674166 
3984.105 5695416 5701392 5691186 5666344 5630024 5585786 5537357 5487625 
3987.962 5439308 5394787 5356745 5327529 5309717 5304418 5311730 5329742 
3991.820 5355839 5385931 5415990 5442999 5464305 5478632 5485645 5486048 
3995.677 5481015 5472291 5461553 5450481 5440482 5431960 5424713 5418272 
3999.535 5412132 5406563 5402067 
##END=
