##TITLE=la_3 Sep 07 10:15:23 2026 (GMT+02:00)
##JCAMP-DX=5.01  $$ Nicolet v. 970
##DATATYPE=INFRARED SPECTRUM
##ORIGIN=Vojna akademija
##OWNER=Nicolet
##LONGDATE=2026/09/07
##TIME=10:15:49
##SPECTROMETER/DATA SYSTEM=Nicolet iS20
##DATA PROCESSING=
Ratio against background
%Transmittance->Absorbance
Truncated
ElementMultiply or ElementDivide
##COMMENTS=
Number of sample scans: 8
Collection length: 11,90 sec
Sample gain: 8,0
Background collected on: Mon Sep 07 10:04:03 2026 (GMT+02:00);
Number of background scans: 8
Background gain: 8,0
Sample spacing:  1,000
Number of scan points: 12415
Resolution points: 8286
Number of FFT points: 65536
Apodization: N-B strong;
Phase correction: Mertz;
Laser frequency: 15798,00 cm-1
Number of rejected sample scans: 0
Number of rejected background scans: 0
Bench serial number: BER2010005;
##RESOLUTION= 4,000
##XUNITS=1/CM
##YUNITS=ABSORBANCE
##FIRSTX=400.156891
##LASTX=4000.123047
##FIRSTY=0.004496
##MAXX=4000.123047
##MINX=400.156891
##MAXY=0.268181
##MINY=-0.004181
##XFACTOR=1.000000
##YFACTOR=1.000000E-009
##NPOINTS=7468
##DELTAX=0.482117
##ZPD=6100
##XYDATA=(X++(Y..Y))
400.157 4496458 1913658 -359090 -2040859 -2839660 -2560523 -1195750 1052385 
404.014 3767832 6409934 8371295 9195303 8701509 7040118 4604306 1896719 
407.871 -605169 -2567375 -3780657 -4181105 -3833865 -2914443 -1668139 
411.246 -363791 720799 1365643 1442896 957966 55370 -1013447 -1970675 
415.103 -2606372 -2789292 -2477245 -1692695 -526214 860614 2212252 3179523 
418.959 3484667 3087644 2226306 1248228 473776 137064 374277 1257001 2752300 
423.298 4708263 6831716 8771422 10227660 11037458 11218851 10913491 10304910 
427.155 9534001 8680753 7755908 6728899 5568098 4278063 2915086 1601667 
431.012 488604 -278601 -598948 -456943 76016 855933 1711826 2461232 2956518 
435.351 3125187 2991981 2679982 2359244 2194868 2277532 2611409 3129192 
439.208 3733842 4333045 4873292 5354732 5817868 6312225 6852687 7396855 
443.065 7854010 8125488 8145880 7914271 7481188 6915502 6264522 5535679 
446.922 4696306 3711184 2578709 1363184 188208 -777555 -1376655 -1499209 
450.779 -1113168 -285985 821805 1989810 3021709 3790527 4268995 4504828 
454.636 4580063 4564258 4492474 4369424 4182338 3924948 3619360 3314923 
458.493 3069858 2929697 2912384 3021976 3263542 3645823 4175447 4836937 
462.350 5577731 6300761 6892913 7257480 7340675 7148701 6738456 6201464 
466.207 5628446 5093897 4632370 4240152 3896429 3591296 3345407 3212835 
470.064 3260838 3542855 4067537 4782562 5569239 6271918 6760600 6960685 
473.921 6877529 6573390 6139592 5665169 5228755 4902244 4738644 4765677 
477.778 4968063 5283086 5607233 5822335 5837749 5611865 5172721 4610435 
481.635 4060982 3651503 3458214 3486938 3674426 3917458 4112123 4195386 
485.492 4154271 4022220 3850027 3684183 3550639 3452803 3379934 3317594 
489.348 3253593 3180591 3097288 3010799 2941306 2922492 3002057 3228123 
493.205 3629651 4200204 4890985 5622707 6291819 6802804 7082686 7094406 
497.062 6848109 6395205 5815148 5190292 4605110 4134334 3836755 3753160 
500.919 3884025 4178525 4527460 4796968 4870712 4687128 4262069 3675562 
504.776 3040761 2457567 1999630 1693198 1526314 1468296 1491801 1587699 
508.633 1760229 2012512 2327230 2659112 2944175 3117578 3142842 3032987 
512.490 2853947 2704487 2680515 2855481 3254495 3852567 4574638 5317499 
516.347 5961383 6392784 6536725 6364775 5908949 5250823 4513566 3827931 
520.204 3299398 2991514 2909716 3011666 3222014 3463057 3666172 3783173 
524.061 3791797 3688494 3486470 3213636 2917421 2660212 2509952 2526282 
527.918 2735228 3120315 3618024 4137879 4578958 4861564 4958478 4903450 
531.775 4781255 4688200 4706454 4867395 5148110 5481853 5788923 6000016 
535.632 6074939 6008448 5819749 5540478 5200654 4829064 4453707 4101018 
539.489 3798883 3569413 3425017 3368514 3395696 3501535 3685720 3951061 
543.346 4296601 4705148 5137046 5525142 5789963 5865388 5718379 5369493 
547.203 4885589 4363065 3889508 3525919 3294623 3184963 3167941 3216106 
551.059 3317794 3476216 3701025 3993260 4333480 4679693 4977748 5173795 
554.916 5237810 5171984 5012473 4813082 4634915 4525619 4505330 4567974 
558.773 4684583 4818342 4936157 5020953 5073045 5106637 5137650 5174733 
562.630 5213329 5237475 5226374 5167759 5064832 4937934 4816299 4723169 
566.487 4665291 4627279 4577417 4482598 4328393 4128413 3924346 3767331 
570.344 3701827 3745774 3885363 4082622 4294225 4487820 4649885 4787084 
574.201 4914140 5040461 5161321 5255316 5293081 5252734 5127155 4926305 
578.058 4671922 4389707 4101988 3830504 3600316 3438142 3372521 3423614 
581.915 3593367 3862496 4192877 4540049 4863206 5137851 5359597 5539337 
585.772 5691119 5820320 5918791 5969076 5955471 5876907 5752793 5621498 
589.629 5528900 5510376 5582195 5734193 5933637 6131224 6277700 6331624 
593.486 6264959 6068757 5753062 5352586 4921479 4533654 4262169 4154438 
597.343 4216966 4407179 4646067 4837875 4911359 4841326 4659698 4438844 
601.200 4264210 4197260 4251227 4390945 4548152 4652497 4649583 4522471 
605.057 4291280 4003326 3712688 3471240 3319330 3278331 3353554 3528324 
608.913 3767431 4017271 4217601 4318855 4294459 4154940 3944240 3731069 
612.770 3577030 3520507 3561830 3668311 3786382 3866206 3881618 3835652 
616.627 3756502 3680440 3638572 3643317 3690399 3765459 3854506 3947182 
620.484 4036969 4116772 4174744 4194684 4162868 4074226 3939826 3784778 
624.341 3644720 3551073 3522812 3560560 3649097 3762919 3874531 3964570 
628.198 4018910 4029444 3992825 3907996 3777391 3609337 3418371 3222314 
632.055 3040160 2889802 2784546 2736462 2755701 2848544 3016104 3247251 
635.912 3516766 3784143 4004363 4139284 4169224 4101218 3967044 3813490 
639.769 3681911 3597677 3562665 3559592 3563066 3554982 3532733 3508783 
643.626 3501535 3523313 3571685 3628782 3665671 3655847 3586652 3463124 
647.483 3308512 3154857 3038258 2987978 3021809 3144778 3346676 3602221 
651.340 3868847 4096335 4230148 4227003 4071517 3782405 3412527 3032286 
655.197 2716890 2518917 2456667 2513018 2645177 2803187 2944842 3049069 
659.054 3116410 3160531 3198982 3247251 3314756 3406449 3526587 3677968 
662.911 3859287 4061049 4264477 4442493 4565061 4605747 4544335 4372737 
666.767 4101453 3778594 3491915 3332953 3337260 3459817 3623236 3768367 
670.624 3873127 3937987 3973798 3990786 3994932 3984432 3953602 3895693 
674.481 3811017 3707442 3600851 3507413 3437841 3391488 3357060 3317427 
678.338 3258601 3178888 3090881 3018172 2985242 3007396 3083906 3198882 
682.195 3328245 3453004 3566507 3676865 3799451 3946681 4115000 4280238 
686.052 4401488 4434760 4352891 4159322 3894623 3626878 3436973 3386112 
689.909 3502804 3774483 4155107 4577049 4971649 5290331 5507960 5627976 
693.766 5673394 5680611 5688198 5730365 5835835 6021349 6291415 6637040 
697.623 7037154 7459682 7868113 8231102 8526774 8751171 8916458 9048144 
701.480 9174795 9321861 9504773 9726388 9977071 10237294 10485827 10702170 
705.337 10873197 10996302 11080793 11145958 11217932 11325151 11490502 
708.712 11729337 12047499 12441891 12903878 13420075 13975278 14553427 
712.086 15138316 15718050 16287243 16853116 17436940 18076642 18815852 
715.461 19694190 20734878 21933646 23256734 24644284 26028260 27338706 
718.836 28521402 29544008 30389678 31051358 31523358 31798068 31870946 
722.211 31747482 31449470 31011962 30480056 29899706 29306660 28727486 
725.586 28176766 27660040 27175606 26716304 26270336 25820956 25352756 
728.961 24855658 24330674 23793268 23271556 22797714 22396740 22079972 
732.335 21839908 21655106 21494788 21332716 21154080 20959380 20761746 
735.710 20583096 20444776 20358478 20323374 20322852 20328754 20304832 
739.085 20218180 20047806 19791280 19467120 19110478 18765062 18465034 
742.460 18227962 18049008 17907278 17775744 17635760 17485438 17340376 
745.835 17224008 17154754 17135176 17148446 17162854 17141966 17059666 
749.209 16904684 16682647 16406801 16091583 15746670 15377415 14992354 
752.584 14609005 14254070 13960769 13753912 13641066 13604552 13608517 
755.959 13607047 13562194 13460369 13315380 13163949 13049720 13009773 
759.334 13057266 13178738 13335948 13480841 13568689 13570740 13483165 
762.709 13325835 13136491 12957675 12830635 12780607 12812138 12910500 
766.083 13047160 13189224 13308410 13389730 13431387 13441845 13430465 
769.458 13400938 13347052 13256140 13114908 12920229 12682751 12428593 
772.833 12187976 11987105 11838929 11739822 11673274 11618819 11561785 
776.208 11497272 11430287 11368855 11317635 11272201 11220754 11147997 
779.583 11043950 10908904 10754134 10596905 10453514 10331647 10227728 
782.958 10127868 10014976 9876590 9710531 9526651 9344712 9189312 9079473 
786.815 9025376 9022297 9052610 9089116 9102515 9070000 8980893 8839284 
790.671 8661655 8473388 8297427 8148479 8030059 7935732 7854110 7776890 
794.528 7703223 7641204 7603538 7600739 7636213 7704539 7793925 7892946 
798.385 7996917 8110870 8247716 8420582 8635933 8887846 9158822 9423194 
802.242 9657168 9847576 9992971 10103144 10190786 10265791 10329646 10376507 
806.099 10398125 10391881 10364801 10336602 10333786 10386892 10520248 
809.474 10746559 11063969 11452977 11882004 12307433 12683774 12968737 
812.849 13129012 13149605 13036165 12814766 12522436 12202698 11892118 
816.224 11613136 11376032 11178900 11014144 10874623 10757564 10663967 
819.598 10596634 10556436 10538715 10533283 10527037 10505379 10458265 
822.973 10381734 10278955 10157681 10028913 9904081 9792027 9698299 9624577 
826.830 9569125 9527599 9494240 9463524 9428916 9385069 9326905 9249489 
830.687 9148907 9022027 8866811 8683728 8475414 8247885 8010856 7777598 
834.544 7564864 7390586 7272844 7224800 7252123 7350245 7505460 7698704 
838.401 7909986 8124442 8333903 8535289 8727708 8907022 9063302 9182172 
842.258 9248880 9256394 9210194 9131311 9049734 8996926 8995133 9048685 
846.115 9143763 9254160 9352702 9418589 9445746 9441581 9421874 9400711 
849.972 9384289 9367666 9338008 9279851 9182138 9043983 8875671 8697283 
853.829 8532755 8407778 8344003 8354609 8442000 8596220 8795360 9006702 
857.686 9196758 9333641 9394481 9370171 9265093 9094462 8880339 8649183 
861.543 8428014 8243326 8121302 8080927 8129945 8257543 8434602 8616093 
865.400 8752523 8807871 8768718 8651886 8496735 8355115 8268518 8255247 
869.256 8307019 8395617 8486666 8554484 8592165 8611327 8633330 8675852 
873.113 8746302 8839116 8941690 9042867 9140650 9242720 9360624 9501081 
876.970 9657879 9810294 9930183 9988937 9969679 9872319 9712529 9515543 
880.827 9307812 9114053 8953460 8842058 8794312 8821464 8929039 9110703 
884.684 9347048 9603845 9837645 10009789 10089884 10068146 9954321 9774304 
888.541 9559574 9341191 9143154 8977983 8849023 8752015 8679908 8626333 
892.398 8588785 8569522 8575605 8615079 8692585 8804388 8936819 9065331 
896.255 9159803 9194592 9153813 9039078 8868163 8671187 8480010 8317692 
900.112 8194803 8108069 8045822 7994048 7945282 7900065 7866897 7855898 
903.969 7874962 7924597 7997254 8078498 8153510 8210133 8242954 8254572 
907.826 8254200 8254672 8268316 8304047 8363459 8441899 8529106 8613659 
911.683 8688258 8752015 8810543 8873473 8948894 9036168 9124882 9194423 
915.540 9223123 9196284 9114595 8995268 8870767 8774736 8729703 8739710 
919.397 8787280 8840942 8865120 8836681 8751137 8625455 8488119 8370958 
923.254 8296414 8271186 8286620 8324818 8368357 8405211 8434062 8461427 
927.110 8496600 8545157 8604974 8666320 8715876 8741670 8739405 8714828 
930.967 8683695 8666658 8682680 8742820 8846250 8979235 9118588 9240080 
934.824 9323723 9359845 9351957 9314819 9269087 9233987 9223089 9240181 
938.681 9281103 9335334 9392653 9445712 9492479 9535017 9578507 9627152 
942.538 9681867 9740653 9798263 9849000 9888860 9917065 9937099 9955711 
946.395 9980393 10016061 10063060 10115048 10159953 10184070 10177557 
949.770 10139128 10079846 10019995 9986529 10001380 10074216 10196892 
953.145 10346239 10488372 10590183 10630723 10605223 10526629 10416892 
956.520 10300194 10193194 10101787 10022742 9950660 9882691 9823614 9784063 
960.377 9775591 9804601 9867032 9947608 10023148 10072656 10081982 10050343 
964.233 9990497 9924794 9876489 9864117 9896453 9970052 10072656 10186444 
968.090 10294053 10380987 10437494 10458808 10444655 10397853 10324115 
971.465 10232748 10135261 10045120 9976257 9937980 9933336 9955270 9988835 
975.322 10011721 10002092 9944286 9833748 9678478 9497221 9314954 9153441 
979.179 9027102 8939998 8886459 8855956 8837188 8822613 8807973 8791743 
983.036 8771422 8741029 8691063 8611429 8493965 8338261 8153544 7957870 
986.893 7773449 7622994 7523428 7482132 7495616 7550771 7629401 7711116 
990.750 7779217 7824016 7843955 7844427 7837174 7836499 7853975 7898176 
994.607 7970458 8066076 8174814 8283850 8380349 8454332 8500216 8517414 
998.464 8509744 8482848 8442980 8395009 8341132 8280710 8211888 8132376 
1002.321 8041603 7942043 7838692 7739043 7650984 7580980 7533711 7511123 
1006.178 7513045 7537723 7581587 7638304 7698536 7750950 7782692 7784513 
1010.035 7754390 7700154 7638338 7591534 7581587 7621072 7709868 7833935 
1013.891 7971301 8096658 8189704 8239949 8246366 8214387 8152868 8070092 
1017.748 7973258 7871047 7775507 7702212 7669531 7692903 7778273 7920244 
1021.605 8100675 8294117 8471597 8609604 8693903 8722062 8702388 8651921 
1025.463 8593415 8548671 8538196 8575469 8664494 8797998 8959109 9125862 
1029.320 9275349 9390689 9463220 9491903 9480422 9432980 9351889 9237203 
1033.177 9090977 8921396 8743057 8577295 8444535 8356095 8310869 8296347 
1037.035 8294455 8290537 8281554 8276894 8293139 8343260 8429703 8538669 
1040.892 8647087 8729162 8768683 8765912 8735619 8698230 8671525 8661891 
1044.750 8663345 8663582 8652900 8629578 8602337 8584155 8583074 8597842 
1048.607 8616329 8621264 8599904 8550969 8486970 8429805 8399131 8407103 
1052.464 8453217 8527923 8619169 8719561 8827990 8946221 9071928 9191817 
1056.322 9281408 9312246 9261979 9126065 8921159 8682984 8453149 8263621 
1060.179 8129506 8046936 7999954 7972179 7957262 7963033 8005894 8100810 
1064.037 8250316 8436427 8625354 8773349 8841415 8809968 8682579 8484909 
1067.894 8256226 8039714 7868045 7758607 7710711 7709699 7733478 7760294 
1071.752 7776384 7778880 7775001 7778171 7803877 7861803 7953381 8070058 
1075.609 8196424 8312592 8399164 8442845 8436427 8381429 8285911 8165057 
1079.466 8037621 7923483 7841628 7804551 7813187 7856439 7912145 7952302 
1083.324 7950817 7893486 7781545 7633381 7476469 7341214 7248990 7206608 
1087.181 7205092 7226282 7248047 7252797 7233694 7193907 7144289 7097168 
1091.039 7062883 7044866 7041195 7044967 7047930 7044462 7032103 7011057 
1094.896 6984961 6956846 6928801 6901229 6874297 6848613 6827913 6818454 
1098.754 6826634 6857736 6909779 6973445 7032271 7068474 7069080 7031969 
1102.611 6967789 6898603 6851441 6847637 6898367 7000719 7141021 7299092 
1106.468 7456378 7598649 7716377 7803809 7856135 7869866 7844495 7785356 
1110.326 7706495 7626400 7564190 7530508 7521675 7518810 7496189 7430727 
1114.183 7313009 7153282 6979405 6827206 6726005 6689932 6713083 6775542 
1118.041 6849691 6913314 6955062 6975466 6982065 6984624 6989776 6999406 
1121.898 7013616 7032810 7058808 7095484 7145030 7206069 7273653 7341147 
1125.755 7403764 7461232 7517394 7577406 7644509 7716276 7785222 7843112 
1129.613 7886096 7918084 7950918 7998806 8072152 8171201 8284290 8390009 
1133.470 8466630 8498019 8479300 8417609 8328263 8229514 8135650 8057029 
1137.328 8000122 7968669 7966407 7996241 8058481 8149019 8260650 8383017 
1141.185 8506703 8626401 8741332 8853047 8963100 9069053 9163897 9239809 
1145.043 9290074 9314277 9320100 9321149 9331780 9363942 9424244 9513307 
1148.900 9629219 9769356 9931167 10111216 10300974 10485861 10644271 
1152.275 10753488 10796082 10767041 10677278 10551276 10421305 10314343 
1155.651 10247708 10223114 10228847 10244655 10251068 10234851 10191905 
1159.026 10126172 10046918 9964424 9886048 9815513 9753531 9698875 9650426 
1162.883 9608994 9577187 9559641 9561571 9586570 9635045 9703279 9783216 
1166.741 9863066 9931743 9979783 10002092 9999617 9976765 9939913 9894013 
1170.598 9840188 9775998 9696537 9596427 9472938 9328293 9169211 9005384 
1174.455 8848956 8711110 8599363 8517651 8464131 8432609 8413792 8398083 
1178.313 8377950 8350117 8316274 8280777 8250046 8227455 8213442 8204764 
1182.170 8196897 8186159 8172080 8157190 8145778 8140917 8142504 8146893 
1186.028 8148817 8144192 8133456 8121674 8118095 8131734 8166644 8220094 
1189.885 8282635 8341132 8381936 8397746 8387746 8359000 8322825 8292327 
1193.743 8278413 8287059 8319380 8371195 8434670 8499235 8554146 8590981 
1197.600 8604872 8596017 8570671 8538297 8508190 8488153 8480381 8482307 
1201.457 8488558 8494167 8496296 8497039 8500621 8511433 8531539 8558302 
1205.315 8585372 8604669 8610111 8598992 8573713 8540527 8507716 8483388 
1209.172 8473760 8482307 8509338 8552591 8606528 8664596 8718378 8760536 
1213.030 8786637 8795056 8787922 8769191 8742245 8708405 8666353 8612949 
1216.887 8546982 8471225 8393860 8326947 8283850 8273720 8299420 8356095 
1220.745 8432913 8517616 8598552 8668923 8726322 8771456 8806180 8832116 
1224.602 8849260 8856700 8854197 8842058 8821870 8796037 8768042 8740791 
1228.459 8718953 8707290 8710264 8731562 8771794 8827314 8890484 8952276 
1232.317 9003523 9038705 9056670 9060594 9056264 9048178 9039078 9028793 
1236.174 9015126 8995878 8971049 8942738 8915748 8894407 8882807 8883246 
1240.032 8895692 8919232 8952682 8994220 9042089 9094260 9148433 9201868 
1243.889 9252129 9297453 9336282 9368072 9392518 9409820 9422145 9432777 
1247.746 9446322 9467622 9499049 9539454 9582674 9619428 9640703 9641245 
1251.604 9622782 9593547 9567195 9556288 9567601 9600221 9645920 9692641 
1255.461 9730149 9754276 9767933 9779929 9799856 9834188 9884285 9945710 
1259.319 10010467 10070520 10120236 10156087 10177184 10183019 10174403 
1262.694 10153577 10125562 10098803 10082660 10085983 10112843 10161242 
1266.069 10223657 10290117 10351499 10402062 10440277 10467939 10488135 
1269.444 10503342 10516140 10529175 10545674 10570559 10607974 10659144 
1272.820 10720408 10783174 10837253 10873672 10889335 10889335 10885359 
1276.195 10890524 10916278 10967145 11040177 11125799 11213002 11291857 
1279.570 11355693 11401406 11427939 11435423 11424163 11396441 11357665 
1282.945 11316240 11282811 11266318 11270773 11293863 11327803 11363073 
1286.321 11392460 11415388 11437362 11468728 11519388 11594589 11692813 
1289.696 11806821 11925696 12038847 12139113 12222327 12288583 12339510 
1293.071 12379293 12413626 12450143 12498086 12564999 12655254 12766480 
1296.446 12890361 13013597 13122079 13207771 13269634 13313944 13352246 
1299.822 13395061 13447928 13510407 13576074 13637749 13690031 13732503 
1303.197 13768824 13804976 13845338 13889981 13934697 13972677 13997041 
1306.572 14003303 13990437 13960736 13918036 13866171 13808704 13748372 
1309.947 13687329 13627287 13569338 13513517 13458421 13401827 13340799 
1313.323 13274143 13201759 13126006 13050232 12977476 12910125 12849678 
1316.698 12796440 12750578 12712091 12680158 12652627 12626361 12596651 
1320.073 12559234 12512512 12458257 12402409 12353963 12322159 12314148 
1323.448 12332317 12372134 12424025 12475069 12511898 12526119 12516093 
1326.824 12488368 12454780 12431014 12431560 12464907 12532223 12626975 
1330.199 12738261 12854286 12967132 13075227 13183862 13301884 13438393 
1333.574 13599320 13784557 13988349 14201515 14415231 14622815 14822304 
1336.949 15015780 15206494 15396674 15584395 15763368 15925538 16064180 
1340.325 16177760 16269321 16344076 16406594 16458452 16498581 16525496 
1343.700 16539607 16545529 16551688 16568763 16607249 16673557 16769836 
1347.075 16893970 17041436 17206910 17385378 17572168 17761626 17946126 
1350.450 18117092 18264418 18380892 18463514 18515584 18545908 18567936 
1353.826 18596952 18645578 18723306 18834988 18981070 19159924 19369892 
1357.201 19610432 19882634 20189924 20537830 20935666 21397280 21942880 
1360.576 22598718 23390674 24336352 25429970 26633014 27875964 29078618 
1363.951 30175628 31127314 31922224 32564566 33065852 33444450 33729584 
1367.327 33969864 34229776 34589908 35124544 35883264 36886936 38131048 
1370.702 39601288 41289160 43204704 45369956 47798032 50464376 53267600 
1374.077 56023028 58512596 60540012 61994372 62847852 63111312 62796928 
1377.452 61902084 60426096 58400916 55917832 53125848 50184372 47238456 
1380.828 44383132 41661912 39092480 36682212 34438912 32370076 30469854 
1384.203 28713256 27057102 25451648 23855220 22251946 20662908 19137174 
1387.578 17729802 16476693 15383422 14435988 13616859 12913641 12319739 
1390.953 11828544 11427531 11095036 10804133 10528462 10253137 9978223 
1394.328 9719375 9496644 9321861 9190768 9087560 8993510 8897822 8798843 
1398.186 8702658 8617310 8548265 8496026 8458286 8433284 8421122 8423521 
1402.043 8440616 8468286 8498931 8522989 8535425 8539344 8546441 8569623 
1405.901 8615181 8677812 8743564 8796780 8828531 8841719 8849869 8870802 
1409.758 8919062 8998550 9101398 9211751 9315496 9407924 9494104 9584673 
1413.616 9687795 9804330 9927200 10046409 10154628 10253069 10350718 
1416.991 10461863 10596226 10751892 10913219 11059856 11183253 11294917 
1420.366 11416374 11566549 11751465 11967179 12204437 12458530 12733518 
1423.741 13043847 13405825 13827619 14301322 14807014 15323489 15841095 
1427.117 16368298 16932554 17573650 18330602 19227664 20260254 21399402 
1430.492 22603986 23837088 25073278 26297758 27503386 28684794 29843484 
1433.867 30992888 32163862 33409238 34794120 36368108 38114228 39930124 
1437.242 41671576 43235044 44604740 45835252 47006044 48196176 49464100 
1440.618 50841100 52329924 53911040 55551896 57215904 58875004 60508132 
1443.993 62100248 63643052 65133304 66576772 67991024 69402912 70840528 
1447.368 72321952 73850504 75413264 76998608 78612792 80278704 82030272 
1450.743 83890824 85857520 87885280 89896928 91813128 93569688 95146888 
1454.119 96564848 97863952 99081072 100224392 101254832 102087632 102652248 
1457.494 102958848 103086512 103122048 103100664 103017736 102859624 
1460.387 102623456 102319016 101958848 101542960 101046304 100411360 
1463.280 99555936 98391392 96862800 94981344 92808312 90407712 87804200 
1466.655 84971544 81877896 78520472 74948312 71235632 67469464 63709272 
1470.030 59942064 56101408 52089508 47858920 43508992 39326896 35663860 
1473.406 32719486 30460756 28697540 27210244 25850670 24550098 23308856 
1476.781 22158836 21129450 20223978 19422558 18694834 18014572 17367204 
1480.156 16749311 16163144 15610841 15091212 14601740 14142497 13718585 
1483.531 13337690 13006973 12725398 12482673 12259714 12036053 11798616 
1486.907 11547970 11298216 11068183 10869969 10699114 10534029 10350548 
1490.282 10141298 9919471 9710531 9533087 9392009 9279140 9179465 9078256 
1494.139 8966347 8842902 8716045 8596964 8493322 8400549 8302899 8181972 
1497.997 8029722 7853706 7671454 7501280 7353885 7229921 7121957 7019846 
1501.854 6916748 6811588 6708675 6615811 6540256 6488156 6461587 6457552 
1505.712 6462798 6453381 6399913 6288155 6134148 5967833 5810951 5673864 
1509.569 5562023 5477928 5421526 5388849 5372143 5361106 5346279 5323101 
1513.426 5292209 5257161 5220405 5181406 5134162 5070900 4987334 4890716 
1517.284 4798441 4731241 4702100 4712618 4753785 4809095 4854930 4863809 
1521.141 4816433 4712215 4571791 4419463 4269932 4125937 3986305 3853369 
1524.999 3735380 3644319 3589926 3571885 3577130 3585716 3582375 3560326 
1528.856 3524549 3486337 3458414 3449731 3463625 3497092 3542454 3587821 
1532.714 3618425 3621933 3595104 3545895 3488775 3437941 3403276 3390920 
1536.571 3406515 3454807 3537510 3648262 3767832 3858785 3877138 3803028 
1540.428 3666406 3530328 3441147 3410723 3423380 3454072 3478287 3479389 
1544.286 3449230 3389618 3310416 3225653 3149484 3091782 3060548 3060348 
1548.143 3092483 3151920 3224952 3292186 3333854 3341300 3320332 3286177 
1552.001 3254695 3237703 3239473 3256898 3281870 3307477 3333687 3368748 
1555.858 3424549 3511522 3630420 3762351 3855910 3822849 3603791 3269952 
1559.715 2981505 2821329 2773875 2788948 2825198 2855281 2864820 2848977 
1563.573 2811158 2761270 2713455 2682415 2677881 2703786 2760236 2845942 
1567.430 2958920 3094051 3239740 3373656 3469135 3508382 3494453 3447092 
1571.288 3390419 3341634 3307911 3290383 3286444 3293822 3310816 3338462 
1575.145 3377430 3425985 3478220 3526453 3566641 3601686 3638372 3682579 
1579.003 3736449 3795875 3851865 3893353 3909167 3893687 3848856 3783407 
1582.860 3708511 3633661 3565605 3507447 3461521 3431629 3422245 3438743 
1586.717 3482997 3551607 3633928 3714660 3778093 3812253 3813858 3788622 
1590.575 3749082 3709112 3681610 3675729 3695144 3739424 3804532 3882788 
1594.432 3963667 4034694 4084896 4106169 4097807 4066500 4024595 3984767 
1598.290 3957447 3947918 3955742 3976708 4006135 4040614 4079277 4122626 
1602.147 4170629 4220345 4267422 4306774 4335220 4353493 4364738 4372034 
1606.005 4375382 4370930 4352187 4314103 4257016 4188695 4122392 4071952 
1609.862 4044928 4039945 4047102 4052754 4045463 4019679 3977209 3924747 
1613.719 3869817 3817000 3766629 3714125 3651704 3573422 3480124 3380401 
1617.577 3285542 3202754 3134098 3078901 3036056 3006395 2991181 2990847 
1621.434 3002291 3016471 3020207 2999688 2950780 2882164 2811791 2755368 
1625.292 2722024 2711055 2714256 2718923 2713556 2692451 2658979 2623809 
1629.149 2600308 2597775 2618842 2659679 2712755 2770940 2827699 2878762 
1633.006 2921758 2953949 2971030 2966659 2933633 2869689 2783212 2690684 
1636.864 2606042 2535481 2478360 2432642 2398457 2378101 2374936 2391960 
1640.721 2429044 2481659 2541646 2599842 2647677 2678748 2689517 2677815 
1644.579 2642477 2583309 2502520 2408553 2316870 2247255 2211686 2209055 
1648.436 2229071 2261411 2300781 2347085 2406454 2488324 2605475 2765905 
1652.294 2954416 3111171 3152554 3055876 2883999 2709454 2567443 2462732 
1656.151 2388462 2334626 2292854 2257247 2226073 2200863 2185277 2182580 
1660.008 2193902 2216215 2243092 2265141 2272968 2261877 2234699 2200530 
1663.866 2170325 2153076 2152610 2169893 2203860 2252318 2311507 2374336 
1667.723 2429777 2462132 2455201 2401089 2306211 2190539 2077295 1982221 
1671.581 1909398 1854556 1810002 1769711 1731020 1697024 1675236 1673740 
1675.438 1695127 1733050 1775467 1811998 1838484 1855821 1868798 1883108 
1679.296 1903940 1933460 1970305 2009982 2047599 2078527 2099535 2107792 
1683.153 2100967 2078627 2046500 2015941 1996201 1990576 1998132 2017106 
1687.010 2047000 2087083 2136361 2191471 2246189 2292887 2323999 2334592 
1690.868 2324166 2296618 2258813 2218313 2182513 2157805 2148614 2158404 
1694.725 2188041 2234399 2289256 2343220 2390628 2431843 2470029 2507319 
1698.583 2541680 2565877 2568043 2539680 2485458 2422946 2368406 2328962 
1702.440 2303713 2289789 2285126 2289689 2304212 2328729 2359811 2390261 
1706.297 2410852 2415283 2401323 2371904 2332927 2292487 2258413 2236864 
1710.155 2231402 2241227 2262843 2289789 2314805 2331461 2334659 2321900 
1714.012 2295252 2261177 2228937 2209188 2209788 2232001 2269438 2309942 
1717.870 2341488 2359111 2365874 2367873 2369039 2368706 2362076 2342188 
1721.727 2302713 2240095 2156240 2059251 1961884 1875820 1808372 1760994 
1725.585 1730621 1712259 1702113 1698387 1701681 1714221 1737907 1773138 
1729.442 1818054 1868332 1917751 1961285 1995036 2017172 2028191 2031786 
1733.299 2035881 2051028 2083987 2130600 2178984 2216315 2234066 2228404 
1737.157 2197732 2143853 2072434 1994437 1922877 1869065 1836321 1819884 
1741.014 1811167 1803048 1793166 1783152 1776165 1773404 1772905 1769578 
1744.872 1758533 1737042 1707003 1674671 1648561 1636654 1643572 1669548 
1748.729 1710263 1759730 1811765 1861577 1904240 1934692 1948071 1942213 
1752.587 1918184 1881211 1837918 1795163 1757867 1728891 1707236 1689506 
1756.444 1671511 1650590 1628339 1609482 1599871 1603828 1623118 1656543 
1760.301 1699951 1747288 1789906 1818886 1827836 1813030 1774768 1716184 
1764.159 1642441 1559300 1474413 1396523 1333503 1293622 1281392 1297311 
1768.016 1337159 1393897 1460649 1531269 1599738 1657375 1690537 1683053 
1771.874 1623317 1515441 1381332 1251252 1148219 1081216 1049063 1043716 
1775.731 1055241 1073476 1091214 1103472 1108786 1107026 1098921 1086265 
1779.589 1070886 1056204 1046207 1044214 1051953 1068926 1093406 1122805 
1783.446 1155162 1189515 1224137 1257565 1286178 1305187 1309673 1295749 
1787.303 1262351 1211478 1148485 1080120 1013758 956306 913106 888801 887473 
1791.643 911379 959029 1024087 1095566 1161176 1210581 1237429 1239389 
1795.500 1219220 1183136 1140080 1097957 1062416 1034582 1012330 992038 
1799.358 972478 956505 951192 964940 1002898 1064475 1142671 1226430 1303725 
1803.697 1365344 1405398 1422019 1415903 1389808 1347063 1291030 1225333 
1807.555 1153900 1079954 1006717 936880 872499 815597 768494 734008 714692 
1811.894 711805 724251 748745 781108 816825 852148 885680 917688 949897 
1816.234 984500 1022659 1062715 1099751 1126227 1134366 1117523 1073510 
1820.091 1005522 922868 838337 765042 714360 691759 695178 715157 736730 
1824.431 743434 724051 678020 615801 553857 508308 492883 516104 583451 
1828.771 695144 845243 1017777 1189017 1334068 1432524 1472717 1450243 
1832.628 1366242 1227327 1046473 844147 644736 471952 345161 274270 260843 
1836.968 300132 383496 499617 634549 773971 902248 1005987 1076167 1109152 
1841.307 1108022 1082711 1049063 1022925 1017644 1036276 1071616 1108454 
1845.165 1134499 1145295 1145163 1141375 1140246 1143800 1149780 1152405 
1849.022 1146226 1128021 1097957 1058430 1012662 962748 909553 853974 798601 
1853.362 748413 709813 688739 688175 706362 736962 770751 797705 810751 
1857.701 807730 791730 769191 747782 733610 729826 735402 746156 757109 
1862.041 762586 758702 744563 721396 692954 664348 640854 626718 623931 
1866.380 632558 650676 675863 705964 739783 777987 820776 867719 916725 
1870.720 963645 1004127 1033652 1047901 1044546 1022725 983138 928048 860514 
1875.060 783995 701981 617626 534947 457656 391423 342674 320358 332726 
1879.399 385553 478155 601434 736498 859319 946410 979319 950395 863834 
1883.739 735104 585442 433742 293766 171436 68095 -13452 -65600 -75108 
1888.078 -27334 84798 251361 442863 618788 738389 778319 739983 644769 
1892.418 524862 413179 334716 298673 299005 316711 329775 320524 283090 
1896.758 223314 155525 95502 56994 49571 77341 138920 229314 340055 459381 
1901.579 573697 669790 735900 766071 760926 727702 676295 616199 553293 
1905.919 488836 419911 343039 256698 163381 70945 -9940 -67521 -92467 -81468 
1910.741 -37704 30948 112570 193446 261307 304774 315517 290152 230674 
1915.080 144853 45031 -53375 -133907 -181304 -185610 -146891 -75671 7422 
1919.420 81020 126225 131098 91625 14247 -83489 -175939 -233896 -237771 
1923.760 -185809 -95813 2584 76612 100440 65013 -19946 -128176 -226445 
1928.099 -282177 -275389 -202832 -77791 77673 239724 390560 521179 629107 
1932.439 712767 767864 785622 756711 675465 545330 380445 202330 37807 
1936.778 -89618 -166665 -191969 -175939 -138146 -99688 -74280 -67820 -76566 
1941.118 -88525 -90545 -75903 -49433 -31542 -49300 -125725 -269759 -469156 
1945.458 -687880 -875346 -983364 -976058 -845651 -616319 -337537 -67356 
1949.315 147637 284582 350500 373680 390162 424389 480543 542013 578740 
1953.655 560392 468768 305271 89172 -149375 -376305 -558711 -672166 -700154 
1957.994 -635244 -480442 -252474 16666 285046 505588 644836 690531 655654 
1962.334 570810 467574 368374 279244 191126 93481 -12491 -105452 -148779 
1966.673 -102405 53083 299900 586736 840362 1000407 1039597 969589 831830 
1971.013 686748 589722 570346 630733 744762 876151 986791 1048831 1042421 
1975.353 956904 788012 540885 232961 -103895 -427119 -689468 -856961 -917009 
1979.692 -885895 -801005 -709251 -650861 -648280 -707861 -820484 -967892 
1983.550 -1127048 -1278547 -1402153 -1476524 -1482072 -1398784 -1214617 
1986.925 -933277 -573370 -164976 259351 671615 1055773 1398617 1686778 
1990.782 1902376 2019602 2012978 1868565 1589129 1197722 733676 245095 
1994.640 -221477 -625848 -936318 -1132732 -1201367 -1139243 -957775 -684308 
1998.497 -364420 -50228 207733 378423 455898 461338 429530 395270 377958 
2002.837 371889 348643 271651 118702 -106181 -361904 -586738 -712426 -699128 
2007.176 -551629 -322307 -90082 66107 95303 -6262 -194155 -391832 -524195 
2011.516 -532303 -395407 -131985 209557 570777 901352 1168883 1367305 
2015.373 1506364 1599838 1655047 1667154 1623816 1515608 1341945 1116327 
2019.231 865029 622039 418651 285278 247813 323939 523269 841690 1255040 
2023.570 1713855 2141289 2449269 2551845 2396225 1982953 1369300 650477 
2027.428 -66362 -684241 -1147207 -1441156 -1588882 -1626416 -1583402 
2030.803 -1468599 -1271676 -978570 -591503 -137650 327388 741642 1054411 
2034.661 1238990 1296513 1246832 1119848 942260 740912 542378 377063 281830 
2039.000 289124 414605 642447 924960 1187290 1351982 1371294 1237395 988883 
2043.340 693817 430458 258853 203556 251958 364329 492982 593504 639626 
2047.679 622603 547586 426511 276293 115089 -38168 -159544 -226345 -218828 
2052.019 -125990 49538 289025 559065 817357 1018242 1120945 1101412 956638 
2056.358 708287 399614 90167 -159312 -300852 -309030 -192333 8913 231867 
2060.698 414339 509005 498058 394407 236641 74226 -51288 -114860 -115125 
2065.038 -70205 -11431 32803 41817 7919 -62950 -157159 -256514 -344391 
2069.377 -407721 -439631 -438969 -411495 -367069 -316513 -271150 -239327 
2073.235 -225451 -232505 -260289 -307673 -370843 -445622 -524691 -600305 
2077.092 -665748 -717124 -754435 -781359 -803022 -822072 -837086 -842079 
2080.949 -828388 -788900 -721523 -631109 -527901 -424637 -331412 -256646 
2084.807 -205183 -182033 -193327 -245056 -339789 -470447 -618602 -753509 
2088.664 -838971 -845849 -760422 -592330 -372664 -147222 42413 167259 220098 
2093.004 214861 178861 143328 130501 148267 188407 232265 253847 230276 
2097.344 147140 1954 -193625 -412786 -617576 -768658 -829976 -782517 -630215 
2101.683 -402557 -147057 84698 248742 323840 314788 249206 165072 100109 
2106.023 81981 121618 216584 354911 522307 702645 879372 1035545 1150578 
2110.362 1204832 1183535 1079322 897865 656251 381540 100341 -162425 -390739 
2114.702 -577506 -721920 -826669 -896906 -939889 -963793 -979926 -999695 
2118.559 -1031363 -1077903 -1133988 -1185870 -1215245 -1203878 -1140532 
2121.935 -1023264 -861756 -673556 -482494 -310421 -173455 -78752 -23458 3479 
2126.274 16401 26441 38039 43838 27170 -34789 -161067 -359819 -619330 
2130.614 -911587 -1192578 -1414109 -1540548 -1555637 -1471703 -1320932 
2133.989 -1150776 -1003728 -906462 -863310 -858680 -865757 -858912 -825974 
2137.846 -771900 -715635 -680768 -684969 -730454 -802592 -873032 -911686 
2141.704 -900113 -840161 -754237 -680900 -661778 -722350 -864666 -1062930 
2145.561 -1273427 -1445549 -1538534 -1532294 -1427220 -1239166 -983959 
2148.937 -674052 -313103 93680 527880 953085 1313529 1549058 1615302 1499947 
2153.276 1228058 852745 443327 53813 -292739 -610628 -933772 -1298402 
2157.134 -1709495 -2132662 -2498297 -2734408 -2805292 -2734572 -2598402 
2160.509 -2486733 -2472929 -2580715 -2777934 -2989708 -3133387 -3143124 
2163.884 -2993163 -2706354 -2344981 -1987826 -1704148 -1537246 -1487289 
2167.259 -1520110 -1572474 -1577723 -1482963 -1258824 -909933 -472896 -8581 
2171.117 417159 737560 902049 882925 675863 304475 -183855 -718215 -1222481 
2175.456 -1624105 -1868610 -1932907 -1827270 -1594791 -1294636 -991034 
2178.832 -733564 -547625 -434137 -377928 -359719 -363195 -380245 -405801 
2182.689 -429767 -433739 -392096 -281382 -97005 137793 368971 531596 559862 
2187.029 418751 111311 -317804 -800740 -1262954 -1644307 -1915357 -2074496 
2190.886 -2137410 -2123595 -2045278 -1905527 -1703422 -1443534 -1140333 
2194.261 -820121 -515094 -252374 -50526 84500 156553 172861 139748 61004 
2198.601 -59637 -213132 -381238 -536539 -649140 -695324 -664590 -565825 
2202.458 -421790 -264892 -124499 -23093 28429 27999 -21271 -115788 -253004 
2206.798 -427781 -629256 -835763 -1014273 -1130221 -1154180 -1073705 -899915 
2210.655 -666245 -419969 -204256 -49168 41552 87979 125231 183899 277287 
2214.995 391323 488703 519819 440840 232530 -94620 -501227 -933376 -1331898 
2219.334 -1649952 -1858911 -1947618 -1918623 -1783384 -1559664 -1268636 
2222.710 -942170 -620091 -343993 -154344 -77659 -119100 -263633 -480277 
2226.567 -729892 -973248 -1180186 -1330412 -1414010 -1431051 -1389338 
2229.942 -1305901 -1203482 -1110028 -1049378 -1033908 -1057443 -1097304 
2233.318 -1119216 -1090925 -995827 -840525 -653441 -472102 -331147 -245288 
2237.175 -206111 -185775 -151098 -78255 38669 184628 331897 448899 513350 
2241.515 515440 458518 355076 223679 85494 -37472 -120756 -141790 -85676 
2245.854 48577 244001 465219 663983 797904 837773 779780 645765 477093 
2250.194 321883 220364 197788 257759 385188 549610 716318 850289 924163 
2254.533 925225 858954 749542 632857 551203 538297 607440 747417 924395 
2258.873 1093240 1209484 1247497 1204500 1100548 967231 838570 739120 678551 
2263.213 655189 661494 690797 739717 807796 894346 993931 1096263 1187954 
2267.552 1256834 1295283 1301797 1278966 1231049 1161807 1075038 975600 
2271.410 872167 777755 706727 671615 676991 717580 779647 847666 907594 
2275.749 953218 985961 1012064 1036774 1061087 1079920 1084969 1069358 
2279.607 1031161 975400 913770 859186 822270 809423 821772 857194 911479 
2283.946 979618 1055108 1129615 1194233 1240486 1263514 1265109 1254442 
2287.804 1246267 1255572 1293256 1361256 1452437 1552616 1645069 1717548 
2291.661 1762957 1781355 1777197 1755938 1721872 1677166 1623816 1564089 
2295.519 1503239 1449213 1409421 1390274 1394063 1418363 1457225 1503804 
2299.376 1551486 1595747 1634858 1668384 1696990 1722238 1745358 1767881 
2303.233 1791337 1816191 1841745 1866303 1887733 1904805 1918550 1933560 
2307.091 1955693 1991608 2044203 2111555 2185377 2253950 2305545 2332527 
2310.948 2334792 2320035 2301747 2292820 2302513 2332094 2375202 2420714 
2314.806 2457700 2480360 2489890 2494522 2505386 2533848 2585009 2657178 
2318.663 2741297 2825365 2897841 2952882 2991581 3021275 3051472 3089746 
2322.521 3137970 3192507 3245014 3286344 3311985 3322001 3321868 3320699 
2326.378 3327243 3347744 3383039 3429091 3478120 3520975 3549436 3558456 
2330.235 3547298 3518804 3478588 3434101 3392590 3360633 3343337 3343604 
2334.093 3361001 3391488 3427488 3458581 3472943 3461086 3418939 3348579 
2337.950 3260905 3172413 3102494 3067088 3075798 3126556 3207994 3299932 
2341.808 3381871 3438676 3464526 3465061 3452837 3442583 3442717 3453405 
2345.665 3465962 3468935 3453505 3418371 3369616 3317827 3274058 3246349 
2349.522 3238137 3248185 3270753 3298863 3328913 3361568 3403376 3463224 
2353.380 3546463 3649699 3760814 3859487 3926252 3950325 3934443 3894222 
2357.237 3854372 3840065 3868279 3945510 4067069 4221515 4394660 4574537 
2361.095 4751173 4915950 5059569 5170274 5234322 5239722 5178455 5050350 
2364.952 4863809 4636254 4391146 4153869 3949556 3796944 3706472 3677834 
2368.810 3701259 3759009 3829702 3893687 3935179 3945578 3922674 3869917 
2372.667 3793502 3699288 3590795 3469303 3333453 3181358 3013568 2833736 
2376.524 2650678 2476494 2324832 2206857 2127137 2081856 2058751 2040641 
2380.382 2008950 1951832 1866469 1761294 1651887 1557172 1492599 1463974 
2384.239 1467398 1490172 1516904 1533496 1533097 1516372 1490106 1462777 
2388.097 1441301 1428003 1421255 1417664 1414473 1412479 1414939 1426341 
2391.954 1448714 1480364 1514510 1542341 1554711 1546265 1517270 1473515 
2395.812 1423981 1379604 1350055 1341314 1356204 1393398 1448548 1514145 
2399.669 1581880 1643073 1690238 1719078 1728792 1721373 1701281 1672675 
2403.526 1638084 1597776 1550289 1494594 1431959 1367538 1309142 1266538 
2407.384 1248161 1258164 1295782 1354276 1423781 1492234 1548293 1583443 
2411.241 1592787 1575728 1536157 1482459 1425942 1378939 1353113 1355173 
2415.099 1386318 1440336 1506431 1570440 1620191 1647896 1651754 1635457 
2418.956 1606057 1570906 1534993 1500113 1465669 1429898 1392401 1355173 
2422.813 1322037 1298607 1289667 1297776 1322469 1360425 1406395 1453767 
2426.671 1496855 1530803 1552250 1559865 1554179 1537354 1513480 1487778 
2430.528 1465636 1451972 1448847 1455662 1468961 1482957 1492101 1492832 
2434.386 1484985 1472451 1462378 1462744 1479533 1514278 1563291 1617896 
2438.243 1666655 1699518 1710229 1699352 1673340 1643639 1623351 1622053 
2442.101 1644603 1688342 1744360 1799189 1838384 1850896 1830299 1776964 
2445.958 1697689 1604627 1511584 1433089 1381166 1362685 1378573 1423881 
2449.815 1488211 1557671 1618528 1659836 1676035 1668384 1644370 1615535 
2453.673 1593286 1586170 1596446 1620590 1649592 1673108 1683319 1676600 
2457.530 1655180 1625479 1596179 1573965 1563590 1565452 1577557 1596878 
2461.388 1620357 1646266 1673008 1698421 1719111 1730255 1727328 1707568 
2465.245 1671844 1624681 1573566 1526979 1491768 1471786 1467365 1475843 
2469.103 1493331 1515874 1540313 1564687 1587101 1605757 1619260 1626311 
2472.960 1627508 1624847 1621289 1620091 1623051 1630235 1639647 1649426 
2476.817 1658539 1668251 1682155 1704608 1739370 1787643 1846969 1911195 
2480.675 1973400 2026127 2064011 2085152 2089480 2079160 2057120 2026893 
2484.532 1991474 1954861 1921379 1894822 1878648 1874522 1881643 1896752 
2488.390 1915156 1931730 1942147 1944776 1940117 1930898 1921179 1914457 
2492.247 1913026 1917452 1926105 1936256 1944343 1947872 1945442 1937820 
2496.104 1928235 1921213 1922311 1937388 1970405 2023331 2094574 2179084 
2499.962 2267706 2349050 2411818 2446571 2448970 2420814 2370372 2309342 
2503.819 2249587 2200097 2163899 2138026 2115484 2089813 2057686 2020734 
2507.677 1985483 1960153 1950501 1957823 1977860 2003458 2027392 2046200 
2511.534 2060183 2073799 2090712 2111189 2130201 2138392 2126172 2087483 
2515.392 2024063 1945009 1866203 1803481 1768613 1766051 1792368 1837552 
2519.249 1889131 1936522 1971769 1991474 1996001 1988545 1973434 1956326 
2523.106 1942946 1938086 1945608 1966610 1999430 2039875 2082722 2123641 
2526.964 2159869 2191172 2218546 2242926 2264808 2283460 2297717 2308043 
2530.821 2316271 2325964 2340888 2362409 2387962 2412051 2426811 2425845 
2534.679 2407953 2377568 2344220 2319702 2313639 2329062 2361710 2400856 
2538.536 2432976 2446837 2435941 2401956 2352915 2299815 2253117 2219679 
2542.394 2200729 2192204 2187475 2180416 2167695 2149613 2130367 2115550 
2546.251 2110323 2117515 2137493 2168494 2208689 2256448 2311674 2374070 
2550.108 2442072 2511585 2575143 2624409 2652445 2656545 2640043 2611242 
2553.966 2580643 2557711 2546412 2544812 2546479 2543879 2531515 2510052 
2557.823 2485458 2466897 2463098 2478693 2512718 2559677 2610809 2658679 
2561.681 2698552 2729360 2752300 2770373 2785546 2798285 2808456 2814726 
2565.538 2815727 2810824 2799085 2779811 2752734 2718523 2679348 2639610 
2569.396 2605308 2583476 2580542 2600608 2645577 2713489 2800253 2898308 
2573.253 2998320 3089112 3158929 3197647 3199149 3163201 3096687 3012600 
2577.110 2927062 2854380 2805255 2783312 2786313 2808223 2842674 2885633 
2580.968 2935468 2992715 3057578 3128124 3200551 3269284 3329413 3378531 
2584.825 3416100 3443251 3460686 3467299 3460452 3437607 3398401 3346542 
2588.683 3290884 3243212 3214103 3211232 3235233 3280802 3337293 3393191 
2592.540 3438643 3467900 3480124 3478588 3469436 3459149 3454139 3458882 
2596.397 3475248 3502737 3538112 3576796 3613380 3643718 3666506 3683682 
2600.255 3699388 3719706 3749584 3791296 3843274 3900507 3955976 4002222 
2604.112 4033391 4046300 4041484 4021719 3991923 3957849 3924680 3896429 
2607.970 3875300 3862028 3855542 3854406 3857815 3865371 3877506 3895426 
2611.827 3919464 3948787 3980788 4011419 4036668 4053055 4058808 4054193 
2615.685 4041852 4025364 4008543 3995367 3989314 3991956 4004329 4024595 
2619.542 4048808 4070614 4083993 4083625 4067905 4039744 4006068 3976374 
2623.399 3958919 3958952 3976541 4006771 4041684 4073123 4094863 4103593 
2627.257 4099078 4083157 4058373 4027304 3993127 3960190 3933206 3917458 
2631.114 3916923 3932738 3961995 3998644 4034394 4061350 4075163 4075665 
2634.972 4067203 4056400 4050881 4056333 4075430 4107707 4149621 4196892 
2638.829 4244301 4287666 4325013 4356037 4382879 4408585 4436099 4466595 
2642.687 4498366 4526657 4544938 4547248 4530172 4495286 4448887 4400116 
2646.544 4359015 4332810 4324243 4331338 4349075 4371398 4393656 4413773 
2650.401 4432183 4450829 4472019 4497261 4527561 4562985 4602900 4646301 
2654.259 4690913 4733251 4768894 4793919 4805980 4805678 4797336 4787587 
2658.116 4783433 4789731 4807822 4835329 4867126 4897653 4923557 4943865 
2661.974 4960153 4974900 4990016 5005132 5018238 5026115 5026316 5018539 
2665.831 5004830 4988909 4975905 4970107 4974431 4989781 5015221 5047668 
2669.688 5083270 5117097 5145093 5163534 5171548 5170307 5163668 5156459 
2673.546 5153877 5159376 5173560 5194584 5218796 5241801 5259944 5270375 
2677.403 5271649 5262560 5242606 5211351 5169469 5118874 5063391 5008350 
2681.261 4958946 4919703 4893129 4879558 4877547 4885388 4901406 4924529 
2685.118 4954456 4990418 5030908 5073649 5115622 5153911 5185866 5209440 
2688.976 5222518 5223457 5210144 5181439 5138018 5082733 5021121 4960388 
2692.833 4907673 4867528 4841427 4827388 4821290 4818376 4815863 4812613 
2696.690 4809967 4809765 4813216 4820487 4830236 4841025 4851713 4862603 
2700.548 4874565 4888337 4904020 4920138 4934448 4944871 4950668 4952680 
2704.405 4953383 4955427 4960891 4969638 4980095 4990217 4998093 5004193 
2708.263 5010462 5020718 5038216 5065134 5101172 5144187 5190661 5237341 
2712.120 5282046 5324174 5364561 5403812 5442160 5478800 5511115 5536384 
2715.978 5552325 5558131 5555781 5548868 5542995 5544002 5555815 5580751 
2719.835 5617907 5664330 5715425 5767030 5816290 5862265 5905859 5948182 
2723.692 5990273 6031327 6068387 6097183 6113548 6114085 6098057 6067614 
2727.550 6027699 5984596 5944352 5912577 5891920 5882449 5881878 5885909 
2731.407 5889536 5887722 5876807 5854809 5821360 5777539 5725228 5666680 
2735.265 5603876 5538733 5473834 5412031 5356745 5310992 5276613 5253036 
2739.122 5237575 5225402 5211619 5193142 5169536 5144120 5122092 5109553 
2742.979 5109922 5123467 5146266 5172218 5194484 5208031 5210714 5203705 
2746.837 5190259 5174365 5159443 5147641 5140298 5137817 5140365 5148311 
2750.694 5161220 5178388 5198105 5218091 5236502 5252231 5265646 5278189 
2754.552 5291773 5307504 5325013 5342891 5358758 5369996 5376202 5378181 
2758.409 5378986 5382643 5392405 5410387 5436221 5467190 5498766 5526249 
2762.267 5545277 5553466 5550915 5540411 5526350 5514034 5508698 5513530 
2766.124 5530310 5557862 5593874 5634858 5677556 5719085 5758199 5794027 
2769.981 5826801 5856891 5885237 5912845 5941061 5971528 6005525 6044027 
2773.839 6087271 6134652 6185029 6237127 6289701 6342315 6394768 6447126 
2777.696 6499289 6550650 6600437 6647773 6692624 6735529 6778134 6822292 
2781.554 6870359 6923683 6983446 7050254 7124719 7207888 7301081 7405583 
2785.411 7522215 7650241 7786740 7926858 8064387 8193047 8307222 8404400 
2789.269 8484706 8551273 8609401 8665103 8723482 8788058 8859675 8937293 
2793.126 9018644 9101703 9185285 9270577 9359710 9455701 9560861 9675903 
2796.983 9798941 9925912 10051598 10170739 10279396 10376202 10462678 
2800.359 10543162 10623525 10710796 10811436 10930141 11069781 11230139 
2803.734 11408992 11601497 11802191 12005464 12206890 12404148 12597162 
2807.109 12788080 12980071 13176791 13381393 13595287 13818760 14050324 
2810.484 14288242 14530266 14774789 15021199 15269672 15521377 15777282 
2813.860 16038496 16305165 16577093 16853220 17133176 17417316 17707782 
2817.235 18008668 18325694 18665190 19032372 19430284 19858596 20313478 
2820.610 20788648 21276724 21771412 22269246 22770652 23280366 23806530 
2823.985 24358534 24946434 25578638 26260830 26996876 27788388 28636376 
2827.361 29542554 30509378 31541030 32642786 33820944 35081972 36431956 
2830.736 37877068 39423612 41078124 42847524 44739996 46763168 48925660 
2834.111 51236268 53703304 56335796 59142408 62130068 65303372 68662568 
2837.486 72202448 75911280 79773120 83768328 87875344 92075392 96350992 
2840.862 100688192 105077160 109509920 113980464 118485104 123019840 
2843.755 127580104 132160352 136750448 141336080 145897584 150407744 
2846.648 154835136 159141216 163281600 167209200 170870192 174208352 
2849.541 177167552 179690032 181723328 183221200 184145408 184473120 
2852.434 184196912 183330752 181908000 179984208 177629856 174919856 
2855.327 171933808 168742976 165408208 161983904 158514784 155041376 
2858.220 151603536 148237008 144977008 141856480 138902304 136139488 
2861.113 133588256 131263016 129173264 127321632 125701576 124298392 
2864.006 123090968 122054536 121162992 120395080 119732680 119160384 
2866.899 118664032 118224584 117816128 117406880 116955992 116422080 
2869.792 115767088 114958056 113975296 112811784 111474624 109983192 
2872.685 108368624 106670272 104928840 103187760 101486448 99857368 98329304 
2876.061 96924096 95659848 94552552 93614736 92856072 92283312 91897256 
2879.436 91695048 91669920 91814232 92120448 92583256 93199280 93965784 
2882.811 94878968 95932624 97116608 98419360 99828256 101331776 102921272 
2886.186 104589816 106331624 108140888 110009656 111929160 113889536 
2889.079 115881032 117895144 119924488 121961600 124000240 126033008 
2891.972 128052680 130053896 132032528 133986832 135917088 137824736 
2894.865 139711088 141578208 143429056 145267136 147098048 148928512 
2897.759 150764864 152612480 154474272 156350624 158240576 160143040 
2900.652 162058288 163988704 165937888 167910912 169912624 171947456 
2903.545 174019664 176133680 178293728 180504768 182771776 185099632 
2906.438 187493056 189957360 192498336 195122800 197837200 200646080 
2909.331 203551056 206549600 209635600 212801216 216039184 219343520 
2912.224 222709952 226133952 229608016 233119520 236650144 240174720 
2915.117 243665520 247091616 250417584 253606416 256613408 259386336 
2918.010 261871344 264010640 265750352 267047072 267865008 268180512 
2920.903 267979264 267255520 266012736 264265008 262038224 259366752 
2923.796 256293808 252865696 249126032 245117776 240880960 236453600 
2926.689 231877104 227193408 222443088 217665584 212891376 208142384 
2929.582 203432288 198767360 194150752 189585872 185078928 180640400 
2932.475 176284208 172025584 167879760 163858272 159968000 156211728 
2935.368 152588608 149096928 145737840 142515056 139437472 136516896 
2938.261 133764864 131191968 128805280 126607744 124600816 122785864 
2941.155 121165440 119744024 118526976 117518352 116718928 116125432 
2944.048 115728848 115515936 115470888 115574904 115807752 116149160 
2946.941 116575856 117065176 117594144 118139280 118680928 119199928 
2949.834 119678512 120100040 120444880 120690640 120813544 120788032 
2952.727 120591728 120208576 119630544 118859200 117903840 116780536 
2955.620 115506464 114099856 112576592 110948688 109225200 107411984 
2958.513 105512592 103529992 101467536 99330024 97124736 94859928 92544176 
2961.888 90185560 87789600 85361488 82905368 80427216 77934616 75437512 
2965.263 72945432 70467496 68010864 65580884 63182628 60822428 58509488 
2968.639 56255072 54071028 51967180 49949116 48016952 46165932 44388676 
2972.014 42678316 41030200 39442808 37918068 36459740 35070008 33750428 
2975.389 32498676 31310636 30180104 29100902 28067566 27076462 26125722 
2978.764 25215332 24346828 23522030 22742614 22009242 21321266 20675938 
2982.140 20069148 19495952 18950854 18428598 17925406 17439010 16969108 
2985.515 16517064 16085705 15677514 15295035 14938612 14606675 14295810 
2988.890 14001044 13717799 13441810 13171088 12905209 12645430 12393885 
2992.265 12152197 11921575 11702104 11492577 11291993 11098911 10912914 
2995.641 10734469 10564957 10406542 10261008 10129733 10012128 9906386 
2999.016 9808904 9715139 9621122 9524958 9426377 9327175 9230467 9138383 
3002.873 9051155 8966888 8881792 8791810 8694647 8590306 8482172 8375281 
3006.731 8274698 8184606 8106854 8041165 7985779 7938871 7898411 7862444 
3010.588 7828639 7793722 7753716 7704741 7645420 7576800 7502965 7429379 
3014.446 7361535 7301350 7247575 7195760 7139943 7075647 7002537 6923582 
3018.303 6845483 6775172 6717693 6673680 6639934 6610260 6576922 6534504 
3022.160 6479580 6412422 6335390 6252656 6168292 6085725 6007205 5933570 
3026.018 5864213 5797787 5732413 5666781 5600654 5535578 5475377 5424110 
3029.875 5385528 5361710 5351680 5351579 5355672 5358154 5354699 5343260 
3033.733 5324443 5299588 5271113 5240795 5209876 5179461 5150692 5124775 
3037.590 5102614 5084074 5067313 5049412 5026115 4994407 4952914 4903182 
3041.448 4849402 4796800 4750201 4712818 4684482 4662210 4642149 4619644 
3045.305 4591448 4557092 4518353 4479417 4444903 4419362 4405672 4403865 
3049.162 4411028 4421840 4430744 4432384 4423580 4404501 4377758 4347201 
3053.020 4317550 4291682 4270601 4253804 4239583 4226334 4212716 4198196 
3056.877 4182038 4163203 4140656 4113661 4082855 4050848 4022053 4001520 
3060.735 3993160 3997608 4012121 4031384 4048741 4059778 4063022 4060714 
3064.592 4056099 4052754 4050580 4046433 4034360 4009279 3968549 3914148 
3068.449 3852701 3792098 3740159 3701025 3674392 3656382 3641713 3625341 
3072.307 3604693 3579035 3549503 3517000 3481527 3442116 3397799 3348646 
3076.164 3297061 3246783 3203054 3170544 3151620 3146113 3150886 3161499 
3080.022 3172413 3179255 3178788 3169476 3151386 3125721 3094785 3061749 
3083.879 3029817 3002291 2981706 2969162 2964057 2964658 2967627 2968928 
3087.737 2965258 2954083 2933767 2905079 2869890 2831835 2794784 2763271 
3091.594 2740263 2727126 2722925 2724992 2728726 2730227 2726892 2717990 
3095.451 2705587 2693051 2683882 2679848 2680848 2683982 2685216 2680082 
3099.309 2665613 2641410 2609675 2574576 2540747 2512918 2493789 2485091 
3103.166 2486624 2497922 2518417 2546746 2581942 2621742 2662812 2700586 
3107.024 2730327 2747832 2751033 2740096 2717957 2689050 2658645 2630809 
3110.881 2608209 2591542 2580476 2573776 2569943 2567910 2566543 2563910 
3114.739 2557944 2546279 2527582 2502221 2472562 2442972 2418348 2402755 
3118.596 2397391 2400723 2408719 2416816 2421014 2420214 2415849 2410085 
3122.453 2405721 2402522 2398191 2388229 2367540 2333026 2285892 2231335 
3126.311 2177718 2135029 2111755 2112021 2135828 2177785 2230603 2285492 
3130.168 2334959 2374536 2402389 2419714 2428977 2433475 2436008 2437974 
3134.026 2439940 2441406 2441439 2439473 2434775 2427245 2416483 2402888 
3137.883 2386296 2367706 2348417 2330661 2316704 2308609 2307477 2312906 
3141.740 2323499 2336824 2351515 2366940 2383831 2403821 2427545 2454867 
3145.598 2482892 2507119 2522983 2527082 2518617 2499888 2475394 2450636 
3149.455 2430510 2417582 2412751 2415350 2423446 2435075 2448337 2460766 
3153.313 2469329 2471062 2463565 2445638 2419481 2389561 2361576 2341888 
3157.170 2334059 2338257 2351249 2367173 2379933 2384797 2380366 2367473 
3161.028 2349683 2330795 2314006 2301314 2292954 2288190 2285559 2283993 
3164.885 2282195 2279563 2276466 2273834 2273468 2277898 2289856 2311074 
3168.742 2341688 2380000 2422913 2465464 2503587 2533381 2552478 2559644 
3172.600 2554745 2537980 2510152 2472762 2427844 2378434 2327897 2279730 
3176.457 2237297 2202961 2178351 2164598 2162333 2171158 2190472 2218014 
3180.315 2250586 2284360 2315638 2341388 2360610 2373503 2381099 2384464 
3184.172 2383831 2378301 2367540 2351948 2334292 2318769 2310008 2310541 
3188.030 2319602 2332694 2342488 2341888 2326897 2298183 2261910 2226573 
3191.887 2200863 2189806 2193470 2207090 2223642 2236198 2240461 2235532 
3195.744 2223742 2208123 2191405 2174588 2158071 2141222 2124873 2110989 
3199.602 2102199 2101300 2109424 2125839 2147682 2171691 2194102 2212285 
3203.459 2225141 2232035 2232734 2227306 2215649 2197999 2175287 2149447 
3207.317 2122476 2096172 2071169 2046667 2020568 1990542 1954728 1913159 
3211.174 1867401 1820749 1778694 1745857 1727128 1726097 1744793 1782753 
3215.031 1836587 1900912 1967875 2028124 2073600 2097538 2097171 2073866 
3218.889 2033517 1984584 1936123 1896219 1868599 1853591 1848134 1847535 
3222.746 1846936 1843974 1838950 1834425 1834325 1841512 1856819 1878249 
3226.604 1900745 1917319 1922144 1910696 1881743 1837785 1784017 1726995 
3230.461 1673207 1628273 1595681 1576758 1571005 1575827 1587832 1602764 
3234.319 1616666 1626344 1631133 1631831 1632330 1636887 1649659 1673008 
3238.176 1706337 1745924 1785614 1819784 1844008 1856719 1860080 1858117 
3242.033 1855654 1856353 1862110 1872858 1886935 1903142 1920680 1939518 
3245.891 1960353 1982620 2004123 2021466 2029988 2025561 2006620 1973766 
3249.748 1930964 1883773 1838085 1797758 1765486 1740701 1721440 1705672 
3253.606 1691502 1677864 1665058 1653982 1645401 1640313 1639581 1643938 
3257.463 1654514 1672243 1696757 1726796 1758666 1787544 1807307 1813263 
3261.321 1802582 1776598 1739803 1699984 1666123 1645568 1642874 1658007 
3265.178 1686479 1720309 1750149 1767515 1767016 1746623 1708999 1660036 
3269.035 1607320 1558569 1520096 1495858 1487113 1493331 1511917 1539548 
3272.893 1573067 1608484 1642109 1670047 1689672 1698653 1696857 1686279 
3276.750 1670813 1655512 1645468 1643971 1652519 1669615 1691901 1716117 
3280.608 1738639 1757302 1771441 1780524 1784117 1781389 1770809 1751247 
3284.465 1723136 1688874 1652918 1621588 1601002 1595016 1605159 1629370 
3288.323 1662663 1698653 1731320 1755904 1769877 1773138 1766883 1753443 
3292.180 1734780 1712458 1687810 1661366 1634293 1607587 1583542 1564687 
3296.037 1553813 1553581 1565485 1589761 1624481 1666322 1710995 1753309 
3299.895 1789307 1815525 1830166 1833027 1825108 1808671 1786346 1760994 
3303.752 1735179 1711028 1690071 1673074 1660269 1652020 1648228 1649126 
3307.610 1654781 1664393 1677032 1690803 1703177 1712957 1719444 1723170 
3311.467 1726230 1730255 1736376 1743828 1750881 1754374 1752212 1743961 
3315.324 1730987 1716816 1704708 1696990 1693697 1693664 1693997 1692832 
3319.182 1690205 1688142 1689839 1697489 1711926 1730854 1749317 1762126 
3323.039 1764787 1755372 1734879 1706703 1675270 1644836 1618262 1596978 
3326.897 1581946 1573433 1571571 1576625 1588331 1605757 1628106 1654248 
3330.754 1683053 1714620 1749084 1785681 1823411 1859414 1890196 1912526 
3334.612 1923842 1923642 1913625 1896719 1875986 1854423 1833659 1813396 
3338.469 1793000 1770809 1745658 1716716 1684517 1651022 1619992 1596446 
3342.326 1586336 1594816 1623982 1671810 1732052 1795163 1850097 1887600 
3346.184 1902908 1896319 1872259 1838484 1802250 1769012 1741134 1719377 
3350.041 1702911 1691136 1684051 1681955 1684517 1690105 1695793 1698288 
3353.899 1695227 1685781 1671544 1655413 1641377 1631665 1628206 1630235 
3357.756 1636122 1644370 1652918 1660269 1665258 1667021 1665092 1660335 
3361.614 1654814 1651521 1654348 1665856 1686645 1714388 1744560 1771740 
3365.471 1790871 1799388 1797558 1788076 1774069 1759131 1745059 1732584 
3369.328 1721340 1710762 1700683 1690936 1681889 1672908 1663129 1651388 
3373.186 1636754 1619592 1601301 1584673 1572834 1568877 1574298 1590060 
3377.043 1614903 1646565 1682055 1717781 1749783 1775234 1791769 1798390 
3380.901 1796660 1788542 1777163 1765519 1755572 1748053 1742464 1737840 
3384.758 1732551 1726130 1718246 1708866 1698354 1687610 1677099 1668983 
3388.615 1665092 1667287 1676766 1693265 1714221 1736210 1754873 1766683 
3392.473 1770376 1766617 1757900 1747454 1737042 1727361 1717182 1704741 
3396.330 1688541 1668019 1643772 1617863 1592222 1569409 1551220 1538783 
3400.188 1533230 1535159 1544735 1562060 1586535 1617032 1652319 1690338 
3404.045 1728858 1764122 1792268 1808704 1809203 1792035 1758433 1713356 
3407.903 1664160 1619825 1586901 1569077 1565386 1571338 1581780 1591357 
3411.760 1597377 1599339 1598175 1594350 1587466 1576459 1560032 1539016 
3415.617 1517137 1499415 1492466 1500546 1524053 1559034 1598574 1634359 
3419.475 1659271 1670447 1668218 1656577 1641177 1627574 1620025 1620856 
3423.332 1630601 1648361 1671677 1696757 1719145 1734647 1740834 1737641 
3427.190 1728026 1716384 1706836 1701348 1699086 1696691 1689839 1676400 
3431.047 1657175 1635922 1617797 1606123 1601368 1599605 1594350 1579286 
3434.905 1551685 1513247 1470390 1432291 1407659 1402107 1417166 1449844 
3438.762 1494627 1544436 1592189 1632231 1659703 1672343 1669815 1655479 
3442.619 1635590 1617963 1610513 1618395 1642009 1677032 1715984 1749417 
3446.477 1769578 1772605 1758765 1731420 1693564 1648328 1595747 1535924 
3450.334 1469891 1400911 1335763 1283021 1250288 1243177 1262949 1306250 
3454.192 1365976 1433920 1501244 1560131 1605558 1634326 1645634 1641044 
3458.049 1623650 1597210 1565918 1532565 1498717 1464572 1430496 1397088 
3461.906 1366640 1343009 1329914 1329781 1342676 1365677 1393332 1419792 
3465.764 1440104 1451473 1454033 1449246 1440270 1430264 1421620 1417066 
3469.621 1418562 1427637 1445223 1469792 1498817 1527544 1551552 1567846 
3473.479 1576559 1580549 1585338 1595182 1612176 1634426 1657042 1673939 
3477.336 1680492 1676134 1663861 1650224 1641111 1640911 1649891 1664759 
3481.194 1679061 1687876 1687976 1679793 1666355 1651887 1639148 1629736 
3485.051 1622586 1615967 1608218 1598507 1587533 1576891 1569043 1565618 
3488.908 1567846 1575495 1587200 1600769 1613473 1622486 1625712 1622320 
3492.766 1613373 1601833 1591524 1585637 1586070 1591989 1599638 1603995 
3496.623 1600636 1586901 1564421 1537121 1511618 1494029 1489008 1498385 
3500.481 1520894 1553148 1590127 1626710 1658107 1680858 1693231 1694529 
3504.338 1685581 1668285 1645035 1618628 1591025 1563490 1536589 1509323 
3508.196 1480198 1448415 1413975 1378773 1345967 1319843 1304423 1302462 
3512.053 1314991 1340649 1376712 1418130 1459386 1494794 1519664 1530836 
3515.910 1528110 1514078 1492633 1470024 1451507 1440769 1438940 1444126 
3519.768 1452304 1459053 1460882 1456327 1446320 1433787 1421720 1413011 
3523.625 1407360 1403869 1399448 1392069 1381532 1368668 1356769 1349324 
3527.483 1349157 1357001 1372025 1391902 1413775 1435449 1455795 1474546 
3531.340 1492234 1508991 1524419 1537852 1547928 1553015 1551652 1542973 
3535.198 1527378 1506863 1485152 1467298 1459020 1464206 1483988 1516306 
3539.055 1555044 1591723 1617564 1625113 1610879 1576093 1527046 1472285 
3542.912 1421720 1383725 1362818 1359262 1369366 1387049 1405797 1421354 
3546.770 1431893 1438674 1444259 1451872 1463674 1480198 1500413 1521127 
3550.627 1537553 1543173 1532333 1501576 1452138 1390008 1325194 1268797 
3554.485 1230185 1215133 1225500 1258795 1308477 1366142 1422751 1469492 
3558.342 1500113 1510620 1500712 1472917 1434053 1392235 1355938 1332872 
3562.199 1326258 1336295 1358265 1384789 1407459 1418462 1413110 1392866 
3566.057 1366075 1346266 1347928 1379537 1438076 1513180 1590792 1658971 
3569.914 1709265 1737408 1742664 1727528 1696624 1656843 1615502 1578321 
3573.772 1549723 1530072 1517702 1508525 1497753 1481761 1458754 1429233 
3577.629 1395293 1361023 1330611 1307979 1296579 1297776 1312000 1338023 
3581.487 1373787 1416468 1462677 1509988 1555576 1597344 1633129 1659903 
3585.344 1674006 1670746 1646466 1601268 1541909 1480464 1430928 1402905 
3589.201 1398750 1415171 1445223 1481428 1517403 1548027 1570706 1584806 
3593.059 1591623 1593053 1591657 1589495 1587466 1586369 1586369 1587134 
3596.916 1588032 1587600 1583443 1573067 1554445 1527179 1493530 1458621 
3600.774 1429466 1413941 1417565 1443428 1490704 1556374 1634525 1718712 
3604.631 1801484 1874955 1931863 1965778 1973234 1954129 1913625 1860346 
3608.489 1803614 1750581 1704109 1662797 1623916 1585970 1550056 1520130 
3612.346 1501975 1499947 1514045 1538983 1565552 1584374 1589927 1580815 
3616.203 1559699 1532698 1507993 1492865 1493796 1513147 1548959 1596080 
3620.061 1648627 1701581 1752212 1799355 1841878 1879281 1910896 1935990 
3623.918 1954229 1966044 1971836 1972502 1968274 1959188 1944310 1922278 
3627.776 1892226 1855155 1815026 1778161 1749151 1729191 1717814 1714121 
3631.633 1718313 1731686 1754607 1785880 1821781 1856353 1882242 1894256 
3635.490 1890263 1871494 1842643 1809969 1780424 1760662 1754607 1762924 
3639.348 1782553 1807307 1829300 1841213 1837619 1816523 1781222 1738971 
3643.205 1698321 1668218 1655047 1661998 1689972 1737208 1799887 1872492 
3647.063 1947139 2014776 2064910 2087782 2076829 2031520 1960486 1879314 
3650.920 1804612 1747953 1712990 1696591 1692500 1693697 1694495 1691602 
3654.778 1685148 1678529 1677398 1685947 1703443 1723968 1739404 1743695 
3658.635 1734081 1712358 1683086 1652685 1626909 1609083 1600004 1598009 
3662.492 1600769 1606057 1613606 1623550 1636654 1653217 1672642 1693531 
3666.350 1714887 1735112 1752478 1763889 1764188 1746024 1703410 1636887 
3670.207 1556640 1480597 1424679 1395991 1395094 1417299 1456626 1505533 
3674.065 1555542 1596446 1619027 1619526 1603030 1579153 1554844 1533097 
3677.922 1514843 1501244 1493896 1494927 1504835 1521992 1543139 1564920 
3681.780 1585471 1605824 1628838 1659470 1701248 1755738 1821448 1894622 
3685.637 1969939 2042705 2108492 2163366 2204093 2227739 2232334 2218347 
3689.494 2188741 2147549 2100101 2050462 2000894 1952964 1907468 1865570 
3693.352 1829933 1804745 1794730 1804213 1834591 1882608 1940083 1995236 
3697.209 2036879 2057919 2056987 2038411 2010215 1981289 1958755 1946773 
3701.067 1944943 1949269 1954828 1958323 1959121 1957990 1956159 1953397 
3704.924 1948038 1937853 1921346 1898382 1871660 1846903 1831031 1831729 
3708.781 1855454 1905005 1977561 2063878 2148548 2213518 2244291 2235798 
3712.639 2192137 2124807 2046567 1968641 1898782 1841978 1801551 1779492 
3716.496 1777296 1794697 1830199 1879181 1935257 1991707 2042106 2082389 
3720.354 2111322 2129635 2139624 2143553 2142820 2137826 2128037 2113486 
3724.211 2094941 2075164 2057353 2045102 2040009 2041274 2045801 2049297 
3728.069 2048265 2040575 2025594 2003491 1975464 1944011 1912560 1887467 
3731.926 1875953 1884672 1916187 1966510 2024263 2070270 2084686 2052825 
3735.783 1976829 1876153 1778794 1706770 1669382 1665856 1688641 1727162 
3739.641 1770776 1812264 1846537 1872059 1889830 1900779 1904972 1901477 
3743.498 1888998 1869830 1852759 1849132 1865970 1904140 1959787 2028391 
3747.356 2105129 2184378 2258946 2318203 2349650 2342454 2291654 2202994 
3751.213 2091478 1979192 1885637 1823710 1796926 1801617 1830199 1874855 
3755.071 1929167 1988612 2049729 2110123 2166629 2214850 2248754 2261544 
3758.928 2247988 2207157 2145118 2073034 2005255 1953330 1923010 1914956 
3762.785 1925639 1948837 1977727 2006620 2031986 2054090 2076596 2104230 
3766.643 2139757 2182314 2226573 2263342 2282694 2275433 2238596 2178251 
3770.500 2107526 2040841 1988279 1953829 1935690 1930665 1934658 1945575 
3774.358 1963049 1987913 2020934 2061181 2105728 2149613 2186476 2209688 
3778.215 2213951 2196833 2159503 2106660 2044336 1977894 1911228 1848001 
3782.073 1791104 1746257 1718745 1713290 1730721 1765452 1806309 1839915 
3785.930 1856087 1850862 1827969 1795861 1765852 1747454 1745658 1760296 
3789.787 1786546 1817488 1846071 1868699 1885104 1898050 1911661 1929500 
3793.645 1953197 1982154 2013411 2042838 2066675 2082655 2090646 2093243 
3797.502 2093143 2092144 2089713 2083621 2070071 2045235 2007053 1957956 
3801.360 1906569 1864173 1838318 1830166 1835989 1850862 1871194 1894722 
3805.217 1919582 1943545 1963448 1975664 1977927 1971670 1961052 1951666 
3809.074 1947838 1952498 1966277 1987746 2013843 2040175 2062580 2077661 
3812.932 2083654 2079626 2065776 2042905 2013244 1981555 1953862 1935790 
3816.789 1929300 1932329 1939850 1947006 1949469 1944743 1933493 1920680 
3820.647 1914889 1924141 1949802 1984817 2019170 2044469 2056854 2056354 
3824.504 2046400 2031886 2019902 2016939 2026460 2048531 2078427 2109957 
3828.362 2136893 2154908 2161534 2156306 2140390 2116882 2090513 2066508 
3832.219 2049363 2041640 2043537 2053924 2071602 2096372 2129635 2173389 
3836.076 2228704 2292820 2357978 2410185 2434975 2422980 2376335 2308542 
3839.934 2238995 2186942 2163899 2172324 2205958 2253251 2299915 2333060 
3843.791 2345952 2338123 2313739 2279363 2240228 2199098 2156972 2114585 
3847.649 2073766 2038178 2013444 2004223 2014476 2044869 2092410 2150879 
3851.506 2210887 2261011 2290222 2292754 2274434 2250253 2232401 2223842 
3855.364 2221511 2220378 2216448 2208156 2195967 2181748 2167994 2157305 
3859.221 2151511 2151012 2155607 2163865 2174222 2185211 2195634 2204626 
3863.078 2212052 2217081 2218247 2213618 2201995 2183712 2160435 2134929 
3866.936 2109723 2086650 2067474 2052692 2042439 2036180 2032951 2032119 
3870.793 2034349 2041473 2055455 2078760 2111755 2152477 2196200 2235165 
3874.651 2261777 2272469 2268272 2253450 2234300 2216948 2206624 2208656 
3878.508 2226107 2259745 2305178 2353681 2392593 2410485 2401722 2366773 
3882.365 2310241 2238463 2158005 2076596 2003258 1949635 1925040 1931996 
3886.223 1962616 2002825 2038444 2059683 2062214 2046267 2015508 1975764 
3890.080 1936689 1908566 1899181 1911062 1940350 1979292 2019669 2056887 
3893.938 2088748 2115018 2136094 2151911 2161068 2162034 2152577 2131932 
3897.795 2100900 2063279 2024629 1991208 1967808 1955693 1953330 1956991 
3901.653 1963249 1971403 1982920 2000795 2028657 2066608 2111189 2155707 
3905.510 2193003 2217714 2227872 2224641 2211919 2194835 2178384 2166862 
3909.367 2162700 2165563 2173189 2182413 2189340 2191038 2186543 2176286 
3913.225 2162333 2147382 2134563 2126904 2126405 2133763 2148315 2167328 
3917.082 2186310 2200996 2208489 2207756 2199964 2187675 2173522 2159736 
3920.940 2146616 2133897 2120944 2107459 2094807 2085518 2083388 2091278 
3924.797 2109990 2137193 2167495 2195767 2216948 2227972 2227838 2216915 
3928.655 2196700 2170692 2142487 2116283 2097138 2088815 2093742 2110822 
3932.512 2136660 2165064 2189840 2207257 2215749 2216815 2213385 2208456 
3936.369 2203460 2198265 2190772 2178684 2160968 2138825 2115018 2094008 
3940.227 2080225 2076230 2083055 2099602 2124008 2154375 2190106 2230270 
3944.084 2274234 2319335 2361077 2392560 2407820 2401922 2373603 2327030 
3947.942 2270570 2215116 2170159 2141755 2130800 2135096 2150413 2172790 
3951.799 2200596 2232401 2267772 2305611 2343520 2378001 2405621 2423213 
3955.656 2430077 2427211 2417315 2404055 2390561 2379400 2371571 2367606 
3959.514 2367073 2369072 2372437 2375868 2377534 2375635 2368606 2355746 
3963.371 2337824 2316704 2294885 2275633 2261111 2253084 2251419 2255249 
3967.229 2262143 2269637 2274667 2275466 2270537 2259612 2243991 2225474 
3971.086 2207057 2191971 2183013 2182713 2192071 2211553 2239895 2275167 
3974.944 2314605 2354247 2390628 2419081 2435675 2438307 2426445 2402589 
3978.801 2372237 2342921 2321601 2313639 2320635 2339289 2362742 2382632 
3982.658 2392260 2388162 2371304 2346718 2321034 2300182 2287224 2283161 
3986.516 2286958 2296851 2312440 2334459 2364175 2401223 2442872 2483092 
3990.373 2514151 2529215 2524816 2502487 2468863 2434175 2408119 2398257 
3994.231 2407353 2432009 2464864 2497088 2520483 2529015 2521350 2499321 
3998.088 2467463 2431310 2395958 2365674 2342054 2325265 
##END=
