##TITLE=lancol_5 31.08. 11:56:50 2026 (GMT+02:00
##JCAMP-DX=5.01  $$ Nicolet v. 970
##DATATYPE=INFRARED SPECTRUM
##ORIGIN=Vojna akademija
##OWNER=Nicolet
##LONGDATE=2026/08/31
##TIME=11:57:45
##SPECTROMETER/DATA SYSTEM=Nicolet iS20
##DATA PROCESSING=
Ratio against background
%Transmittance->Absorbance
Truncated
ElementMultiply or ElementDivide
##COMMENTS=
Number of sample scans: 8
Collection length: 11,90 sec
Sample gain: 8,0
Background collected on: Mon Aug 31 11:53:23 2026 (GMT+02:00);
Number of background scans: 8
Background gain: 8,0
Sample spacing:  1,000
Number of scan points: 12415
Resolution points: 8286
Number of FFT points: 65536
Apodization: N-B strong;
Phase correction: Mertz;
Laser frequency: 15798,00 cm-1
Number of rejected sample scans: 0
Number of rejected background scans: 0
Bench serial number: BER2010005;
##RESOLUTION= 4,000
##XUNITS=1/CM
##YUNITS=ABSORBANCE
##FIRSTX=400.156891
##LASTX=4000.123047
##FIRSTY=-0.000607
##MAXX=4000.123047
##MINX=400.156891
##MAXY=0.270664
##MINY=-0.003010
##XFACTOR=1.000000
##YFACTOR=1.000000E-009
##NPOINTS=7468
##DELTAX=0.482117
##ZPD=6100
##XYDATA=(X++(Y..Y))
400.157 -607021 -116351 716750 2017672 3731169 5635529 7442525 8853758 
404.014 9668653 9838900 9476054 8819672 8146588 7683763 7520091 7621949 
407.871 7879145 8181634 8449838 8653408 8788361 8840603 8761990 8481530 
411.728 7929827 7093598 6042751 4939508 3975504 3318829 3052039 3163501 
415.585 3575427 4185483 4906500 5648116 6310780 6749730 6768509 6220724 
419.442 5130307 3714860 2259112 1005655 112504 -356872 -406232 -120823 
423.298 342509 770751 972478 848430 426379 -158020 -719902 -1087157 -1162078 
427.638 -931524 -469255 102396 649116 1083973 1401044 1683286 2074698 
431.494 2731560 3770172 5208199 6952334 8806012 10530499 11856397 12551220 
435.351 12484685 11665923 10267691 8562695 6852215 5350908 4160560 3283840 
439.208 2662946 2219712 1887966 1630800 1435483 1304423 1237827 1218256 
443.065 1209218 1167687 1057898 870441 625557 373349 179225 114658 239028 
447.404 576848 1112640 1791603 2541846 3283840 3953402 4503890 4907639 
451.261 5160047 5281711 5317868 5324577 5358557 5461016 5648721 5917279 
455.118 6244421 6600100 6944490 7239455 7456008 7586645 7649972 7683392 
458.975 7719379 7759855 7770851 7685113 7422739 6901969 6075376 4951774 
462.832 3611609 2184378 815332 -360282 -1248120 -1781272 -1918260 -1642525 
466.689 -966900 55966 1337159 2751900 4166548 5462057 6537969 7332891 
470.546 7822802 8019124 7955946 7678536 7221869 6593810 5779588 4756633 
474.403 3524416 2121311 636308 -794787 -1990267 -2773094 -3009813 -2660680 
478.260 -1802061 -609900 693983 1917053 2913085 3613580 4019144 4183007 
482.117 4182004 4089077 3958517 3813423 3651369 3455208 3204857 2886400 
485.974 2497855 2051627 1578654 1127688 760329 550108 557904 814469 1302262 
490.313 1954095 2661446 3299297 3768467 4015432 4054193 3955542 3827195 
494.170 3774383 3870853 4155241 4625705 5247435 5953758 6662375 7277865 
498.027 7705281 7870272 7719986 7238074 6449918 5435248 4320964 3254996 
501.884 2380266 1779359 1461547 1373654 1443096 1610047 1850929 2175687 
505.740 2609009 3162133 3810916 4484975 5085516 5518195 5718346 5675945 
509.597 5428773 5048741 4613482 4194416 3841168 3573689 3389317 3269651 
513.454 3193474 3142108 3105631 3081070 3070826 3080836 3117011 3183528 
517.311 3278698 3393759 3509885 3604125 3651603 3637871 3564001 3451735 
521.168 3336592 3258801 3251524 3326609 3467265 3626945 3742833 3748782 
525.025 3603824 3315223 2947177 2605209 2395026 2392460 2609942 3000256 
528.882 3470104 3916689 4244201 4392250 4351552 4161062 3893988 3625408 
532.739 3417002 3296860 3260838 3282003 3325941 3361668 3369482 3343337 
536.596 3286778 3208195 3116477 3020775 2929930 2851579 2792949 2758569 
540.453 2748766 2760670 2789615 2831334 2883632 2946276 3021042 3108468 
544.310 3207293 3313287 3419774 3518203 3598712 3649999 3660358 3618258 
548.167 3517568 3361869 3172079 2983841 2845876 2805555 2891737 3106866 
552.024 3424516 3799485 4177454 4514503 4786716 4990854 5139359 5248005 
555.881 5325147 5367346 5364662 5310891 5215073 5105631 5023299 5007076 
559.738 5083605 5254847 5499504 5779789 6056022 6295046 6474670 6583011 
563.594 6610630 6546446 6380107 6108843 5747824 5334203 4928550 4595499 
567.451 4388736 4333279 4414676 4581837 4762127 4889845 4919468 4842600 
571.308 4684348 4496859 4339001 4260496 4291582 4432551 4654205 4902110 
575.165 5114147 5231237 5218762 5079482 4853154 4602197 4387899 4255677 
579.022 4218371 4258722 4335086 4403296 4431848 4416216 4376821 4348674 
582.879 4360454 4420802 4513197 4602297 4651593 4637828 4565597 4466227 
586.736 4388535 4377791 4463281 4648679 4912531 5213631 5503530 5740169 
590.593 5890073 5937567 5884934 5754304 5581926 5411830 5287949 5239386 
594.450 5276613 5386568 5536753 5679705 5768037 5770052 5675173 5497222 
598.307 5267658 5025344 4802864 4618773 4474496 4358747 4253235 4142161 
602.164 4018341 3882120 3739591 3598612 3466497 3349781 3255630 3194609 
606.021 3179155 3221447 3327377 3490111 3687124 3882220 4037370 4120251 
609.878 4118311 4042788 3927689 3816499 3747311 3738956 3782505 3844678 
613.735 3880281 3854272 3754129 3600751 3440546 3333453 3325640 3431061 
617.592 3623437 3847452 4038875 4147815 4159958 4098476 4013225 3956143 
621.448 3963566 4039209 4153936 4256213 4294393 4237442 4084996 3867678 
625.305 3635498 3441248 3319163 3279299 3307678 3377930 3462856 3545628 
629.162 3624372 3709146 3815596 3956745 4137579 4353560 4590275 4826115 
633.019 5037378 5199748 5290968 5296368 5208802 5032350 4780619 4477141 
636.876 4150357 3830972 3549403 3331216 3195844 3155658 3213669 3363138 
640.733 3585583 3854840 4135872 4392953 4596370 4725614 4775393 4753350 
644.590 4678889 4573198 4456084 4341378 4235635 4143967 4073290 4035899 
648.447 4049677 4131958 4289942 4512963 4770267 5013679 5185262 5237709 
652.304 5141941 4900300 4543866 4128346 3716932 3361735 3099190 2940505 
656.161 2877161 2888301 2951547 3049036 3167807 3299464 3432898 3552075 
660.018 3639775 3680841 3671084 3620663 3554881 3504474 3493752 3531531 
663.875 3604893 3683448 3726825 3699221 3572954 3340098 3020775 2685183 
667.732 2446604 2406587 2578476 2872324 3171879 3398067 3524950 3556251 
671.589 3509818 3408219 3274058 3128024 2984475 2854547 2745498 2665046 
675.446 2621609 2623976 2679115 2788481 2947744 3147481 3374558 3615785 
679.302 3856512 4080949 4272910 4415747 4496625 4509314 4456921 4352389 
683.159 4218672 4087003 3988010 3948487 3984031 4096268 4273479 4493110 
687.016 4728394 4950434 5136946 5276009 5367916 5424311 5462594 5502591 
690.873 5558869 5640060 5746280 5872642 6011237 6155353 6303316 6459031 
694.730 6631758 6834611 7081406 7382025 7738200 8140106 8566041 8980825 
698.587 9341496 9608859 9753022 9766069 9664486 9488178 9289058 9121126 
702.444 9030011 9039889 9152257 9346710 9593040 9858693 10120271 10368567 
706.301 10605902 10842383 11088884 11354433 11643732 11959822 12307877 
709.676 12695442 13132460 13625885 14175839 14772046 15396159 16028251 
713.051 16654415 17274826 17906796 18583118 19340966 20210336 21205290 
716.425 22318600 23523850 24782688 26057496 27313054 28521332 29657906 
719.800 30691942 31583540 32286086 32751604 32951306 32883286 32578494 
723.175 32089152 31479038 30806640 30112588 29422908 28748372 28091816 
726.550 27452662 26828158 26215214 25610060 25011748 24426316 23870204 
729.925 23366302 22938954 22603288 22357074 22179934 22039848 21906916 
733.300 21762982 21611014 21470624 21368112 21319354 21321022 21348344 
736.674 21366372 21342358 21260960 21129276 20971898 20815168 20673576 
740.049 20542034 20397648 20210544 19956834 19630260 19242798 18819348 
743.424 18384316 17958730 17554916 17181778 16851360 16583083 16401226 
746.799 16329763 16379479 16542224 16785886 17063214 17319926 17508068 
750.174 17597872 17577998 17453462 17238728 16953328 16616715 16247651 
753.548 15864704 15483743 15118658 14778800 14468291 14186040 13928676 
756.923 13692903 13478825 13290200 13134818 13021927 12958632 12947435 
760.298 12984918 13060442 13158280 13258634 13342200 13391712 13396667 
763.673 13355936 13279234 13185331 13097218 13037121 13018855 13044838 
767.048 13105994 13185808 13264305 13323681 13352895 13345754 13301099 
770.423 13220136 13106301 12965562 12807360 12644542 12490209 12353862 
773.797 12238073 12137682 12040311 11933530 11810397 11673786 11536911 
777.172 11417327 11331748 11287436 11279751 11292230 11303555 11293931 
780.547 11249826 11167579 11050543 10904691 10735589 10546489 10339791 
783.922 10120101 9897335 9686407 9505450 9372169 9296674 9279513 9309301 
787.779 9366617 9427833 9470907 9481777 9454821 9394143 9310689 9219569 
791.636 9134796 9065737 9015532 8980893 8954340 8928059 8898228 8866878 
795.493 8841719 8834347 8855956 8912602 9004571 9125592 9267022 9421839 
799.350 9586502 9761562 9948625 10146386 10348852 10544417 10720340 10867930 
803.206 10985767 11080760 11163874 11245882 11331239 11418006 11498463 
806.581 11566345 11620215 11666978 11718546 11788062 11882481 11998039 
809.956 12120475 12229382 12304774 12332862 12311115 12248400 12163203 
813.331 12077615 12015512 11997663 12037212 12139488 12298536 12497064 
816.706 12704859 12884559 12996902 13008100 12900670 12677873 12365214 
820.081 12003386 11643868 11335320 11110672 10982912 10940708 10954980 
823.455 10984034 10988962 10940844 10826926 10653745 10443026 10225624 
826.830 10030031 9878420 9779963 9731200 9717206 9717952 9713681 9688101 
830.687 9632877 9546838 9435283 9307439 9174389 9047705 8936413 8847468 
834.544 8784811 8748230 8735078 8740386 8757561 8779706 8800229 8814025 
838.401 8817203 8808108 8788598 8765134 8748027 8752388 8793332 8880710 
842.258 9015735 9186774 9371661 9540267 9666553 9734893 9747261 9720865 
846.115 9683696 9662894 9674074 9716562 9774236 9822427 9836798 9803720 
849.972 9723305 9609401 9481777 9360963 9262182 9193171 9154863 9144880 
853.829 9159431 9192562 9236018 9278192 9304359 9301921 9264822 9198721 
857.686 9119738 9051866 9019151 9035559 9101433 9201970 9314989 9417539 
861.543 9495358 9546364 9578338 9602795 9628135 9655203 9676886 9682239 
865.400 9662250 9616007 9551986 9486112 9436163 9417980 9440158 9503960 
869.256 9604489 9733504 9880827 10035016 10185494 10320382 10428873 10502901 
873.113 10536610 10528123 10477817 10387808 10260363 10098464 9907912 
876.488 9698231 9485875 9293594 9143966 9055892 9037284 9082079 9171817 
880.345 9282390 9392754 9489872 9572004 9645751 9719950 9798297 9877235 
884.202 9945744 9992599 10012366 10010704 10004397 10017214 10069977 
887.577 10171892 10315428 10478597 10629840 10736913 10778351 10747069 
890.952 10651334 10509215 10343049 10172266 10009925 9862693 9732691 9619970 
894.809 9524721 9447541 9388048 9344001 9310046 9277685 9237304 9181326 
898.666 9106880 9017798 8924338 8841753 8784642 8763782 8780788 8827652 
902.523 8887034 8936514 8956978 8935940 8873608 8782884 8686838 8612038 
906.379 8580235 8604094 8682173 8800973 8937225 9066075 9166131 9224206 
910.236 9237947 9214560 9167789 9112936 9064214 9031330 9018239 9023990 
914.093 9043950 9071286 9098387 9119501 9130092 9128502 9115948 9096763 
917.950 9077815 9066820 9072639 9101906 9158416 9241907 9347352 9465793 
921.807 9584537 9690269 9769085 9807922 9798263 9735503 9622443 9469179 
925.664 9294203 9120415 8971861 8870091 8827449 8844762 8909795 9002779 
929.521 9098895 9177333 9226812 9247695 9250876 9253855 9276060 9331577 
933.378 9426580 9558219 9716867 9887640 10053530 10199470 10312341 10383396 
937.235 10408578 10389302 10331885 10246419 10146522 10044849 9951847 
940.610 9873235 9809515 9757495 9713309 9674751 9643481 9625255 9628371 
944.467 9660759 9726897 9825512 9948286 10081338 10207204 10307251 10367515 
948.324 10380241 10346137 10274205 10179931 10081507 9995311 9932624 9897030 
952.181 9884928 9887064 9893301 9895979 9891471 9882116 9874319 9877370 
956.037 9900420 9952253 10039797 10166568 10331750 10528598 10742280 
959.412 10950868 11129539 11254961 11311819 11297876 11226432 11123284 
962.787 11018392 10939927 10904386 10914443 10959703 11023251 11088612 
966.162 11144904 11189746 11227215 11263326 11301243 11338721 11367903 
969.537 11379059 11363481 11317261 11241733 11142388 11026447 10900207 
972.912 10769011 10636495 10506126 10381327 10264706 10157341 10057566 
976.286 9961339 9863778 9762002 9657778 9558828 9476800 9424075 9408702 
980.143 9430678 9479576 9536440 9579626 9589043 9554018 9475546 9366379 
984.000 9246341 9136318 9053389 9005620 8991311 9001019 9022839 9044930 
987.857 9058869 9061305 9051020 9028354 8993442 8946086 8887305 8820991 
991.714 8755025 8699650 8665171 8657835 8677035 8713848 8754416 8785048 
995.571 8796950 8790492 8775243 8768413 8786772 8841482 8933301 9052137 
999.428 9179295 9292646 9374742 9416185 9418285 9391299 9351043 9312517 
1003.285 9285945 9274875 9276466 9283845 9289633 9289261 9282593 9272777 
1007.142 9264551 9261132 9262385 9265059 9264450 9257984 9248372 9244040 
1010.999 9256969 9298231 9373117 9477646 9598358 9716935 9817276 9890013 
1014.856 9936150 9963610 9982054 9995718 9998498 9974426 9905403 9779048 
1018.713 9598358 9383376 9170056 8999801 8904147 8899209 8978423 9118824 
1022.570 9285098 9444222 9571360 9653645 9691387 9692641 9670754 9638535 
1026.427 9607910 9588331 9586028 9603236 9637586 9682612 9728150 9764747 
1030.284 9785589 9788672 9776778 9755767 9732081 9709853 9691183 9676751 
1034.142 9668348 9669432 9684746 9717816 9769051 9834866 9908251 9982529 
1037.999 10054276 10125155 10199741 10282551 10372673 10461626 10535218 
1041.374 10576976 10575380 10528598 10445639 10341114 10230068 10121695 
1044.750 10016604 9910725 9801042 9691895 9597985 9540301 9537998 9599442 
1048.607 9715986 9861541 9997549 10087543 10105009 10042646 9912048 9739468 
1052.464 9556998 9391773 9263739 9181766 9146301 9152290 9192798 9260252 
1056.322 9345965 9440023 9530106 9602558 9645378 9650290 9616176 9549005 
1060.179 9462847 9375792 9306288 9269595 9272743 9312415 9374844 9440396 
1064.037 9486722 9495290 9456717 9372575 9255107 9123562 9001290 8909254 
1067.894 8864004 8875942 8947575 9073113 9236391 9414188 9575527 9688033 
1071.752 9726829 9678410 9549276 9363129 9159532 8979979 8857951 8812774 
1075.609 8846082 8946289 9094563 9272946 9464879 9654491 9822969 9943168 
1079.466 9983038 9914692 9723983 9423702 9056027 8688393 8389604 8215097 
1083.324 8187340 8289424 8469468 8658207 8796206 8845541 8802190 8689644 
1087.181 8547151 8409569 8297224 8211517 8141018 8071442 7997220 7925339 
1091.039 7875029 7867943 7918287 8026684 8178798 8351400 8518428 8660472 
1094.896 8766621 8833604 8862347 8854299 8809359 8727438 8610584 8466327 
1098.754 8306850 8148682 8006299 7888492 7796961 7726462 7668992 7617498 
1102.611 7569483 7526328 7491706 7468817 7458064 7457693 7466019 7482907 
1106.468 7511427 7556165 7620432 7703831 7800199 7899525 7991719 8069991 
1110.326 8134063 8189434 8245217 8309214 8384335 8467407 8550732 8626333 
1114.183 8688460 8737681 8779435 8822140 8872594 8933572 9001493 9069154 
1118.041 9126573 9165184 9179363 9167315 9130160 9070643 8992800 8901205 
1121.898 8803171 8708642 8629578 8579660 8570806 8609165 8693903 8814870 
1125.755 8954272 9087999 9192223 9247763 9245326 9187823 9091180 8980960 
1129.613 8884160 8825962 8820957 8870700 8964183 9082180 9203933 9311299 
1133.470 9394853 9453704 9494578 9527363 9561842 9604285 9656016 9714223 
1137.328 9773694 9829002 9875743 9912048 9938794 9958457 9975273 9993378 
1141.185 10016604 10046579 10083881 10127868 10178099 10236004 10304910 
1144.560 10388860 10490783 10608687 10734401 10852813 10946756 11002147 
1147.936 11014109 10991069 10955353 10937582 10965242 11056083 11209432 
1151.311 11405692 11610686 11788607 11911393 11967111 11963433 11923653 
1154.686 11878428 11852753 11861028 11902266 11962820 12022053 12061195 
1158.061 12069404 12046614 12002126 11950660 11906863 11879348 11870154 
1161.437 11874036 11882889 11889054 11889223 11885750 11885784 11896783 
1164.812 11923585 11965272 12014695 12061466 12094922 12109061 12103985 
1168.187 12085553 12061603 12038404 12016432 11989114 11945143 11872299 
1171.562 11763141 11617969 11445391 11261489 11085484 10933776 10818230 
1174.938 10743401 10707129 10700813 10712495 10728694 10735453 10721529 
1178.313 10679384 10605937 10503546 10378815 10241500 10100803 9964966 
1181.688 9839781 9728930 9635587 9563536 9517202 9501453 9519268 9570311 
1185.546 9649003 9745771 9846492 9935607 9999448 10028370 10019655 9978121 
1189.403 9915641 9848661 9794298 9767187 9774710 9816191 9882962 9961847 
1193.260 10040171 10108197 10163243 10208086 10248048 10288489 10331071 
1196.636 10373386 10410784 10437901 10452224 10453582 10444248 10426701 
1200.011 10402096 10371418 10335890 10300262 10273187 10265011 10285706 
1203.386 10338570 10418046 10508909 10592151 10649807 10671234 10657209 
1206.761 10617957 10568555 10521978 10484876 10455890 10428839 10396835 
1210.137 10358319 10317227 10282823 10263925 10265282 10285334 10316616 
1213.512 10348546 10371994 10382243 10378578 10362662 10336432 10300262 
1216.887 10253747 10197435 10135125 10075301 10029489 10009754 10023928 
1220.262 10073368 10151203 10245537 10339825 10419506 10474117 10499370 
1223.638 10497334 10476492 10449508 10429280 10427787 10451850 10500831 
1227.013 10565704 10632081 10683697 10706518 10695005 10652761 10593137 
1230.388 10533385 10490613 10476356 10493465 10538036 10600878 10672456 
1233.763 10744352 10811028 10868406 10912540 10939213 10944752 10927320 
1237.139 10890217 10841636 10793806 10758990 10746050 10757870 10790002 
1240.514 10833075 10876118 10910331 10931567 10940232 10940164 10936427 
1243.889 10932757 10931126 10932350 10936903 10946383 10963067 10989947 
1247.264 11029336 11081609 11144734 11214362 11285463 11352699 11410795 
1250.640 11456209 11485059 11494176 11480873 11444404 11386440 11312193 
1254.015 11230920 11153641 11091807 11054486 11045241 11062168 11097551 
1257.390 11141640 11185055 11222216 11252308 11279751 11310459 11349230 
1260.765 11396849 11449813 11502444 11548957 11586932 11618547 11648769 
1264.141 11682567 11722427 11765898 11806889 11837499 11852005 11849348 
1267.516 11834639 11816763 11805800 11809715 11830859 11867225 11912925 
1270.891 11960845 12006282 12047329 12085042 12122451 12161806 12203823 
1274.266 12246354 12285653 12317352 12337703 12345407 12341896 12331874 
1277.641 12321614 12318818 12329386 12355804 12395214 12439367 12475887 
1281.017 12491539 12476944 12429719 12356453 12271099 12192236 12137648 
1284.392 12119010 12140578 12198608 12284460 12387033 12496620 12606951 
1287.767 12714310 12817256 12915381 13007758 13094589 13176654 13256857 
1291.142 13338920 13427013 13522883 13624689 13726895 13822079 13902469 
1294.518 13963884 14006690 14036668 14063568 14097144 14145064 14210177 
1297.893 14289749 14376288 14459658 14530437 14580530 14605955 14606983 
1301.268 14587589 14554523 14515978 14480658 14455000 14443832 14448115 
1304.643 14466784 14495217 14527901 14558463 14581078 14591837 14589678 
1308.019 14575698 14553358 14526805 14499774 14474492 14451300 14429755 
1311.394 14408689 14387385 14365602 14342451 14315431 14279544 14227295 
1314.769 14150644 14043992 13906711 13744507 13569373 13397761 13245619 
1318.144 13124470 13037940 12983006 12951327 12933985 12924735 12920809 
1321.520 12921457 12926748 12935009 12942929 12946649 12943645 12934258 
1324.895 12922105 12913606 12914869 12930810 12963445 13012265 13075466 
1328.270 13150937 13236942 13331916 13433745 13538983 13642809 13740540 
1331.645 13829364 13910064 13987494 14070687 14170362 14295639 14452636 
1335.021 14642417 14860945 15099651 15347929 15595282 15832812 16054690 
1338.396 16257763 16441109 16604977 16749760 16875404 16980170 17060906 
1341.771 17114324 17137934 17131936 17101056 17055666 17011732 16987094 
1345.146 16997810 17054632 17160234 17309720 17493164 17699430 17917256 
1348.522 18137578 18352894 18556560 18741224 18900322 19027456 19119446 
1351.897 19177862 19209516 19224996 19237568 19260256 19302686 19371556 
1355.272 19470308 19599792 19761076 19955100 20183400 20446790 20745930 
1358.647 21081656 21457744 21884474 22381320 22978182 23708540 24599750 
1362.023 25653854 26833622 28063502 29253634 30331404 31256442 32021764 
1365.398 32638680 33126284 33507652 33814032 34091488 34397736 34802200 
1368.773 35366100 36127436 37101000 38282504 39666448 41261180 43097516 
1372.148 45220608 47663264 50408668 53344248 56253340 58877928 60994172 
1375.524 62488736 63352012 63618920 63317888 62449904 61005648 59004072 
1378.899 56525128 53715416 50742252 47764520 44893408 42183816 39659768 
1382.274 37327052 35185404 33228140 31433974 29762608 28156260 26553438 
1385.649 24904500 23195494 21461992 19782300 18244100 16905546 15774706 
1389.025 14822853 14010215 13302090 12677668 12126574 11643698 11222319 
1392.400 10854409 10530907 10244926 9991853 9769796 9576543 9407043 9255988 
1396.257 9120990 9006060 8919908 8872357 8867657 8898566 8945748 8985527 
1400.115 9003150 8996858 8976901 8956064 8944632 8944835 8951803 8957485 
1403.972 8957383 8954373 8960597 8987962 9041648 9114764 9192020 9257443 
1407.829 9301956 9327481 9345152 9369054 9409887 9468570 9537422 9603913 
1411.687 9659369 9704364 9746990 9797552 9861575 9937031 10016468 10093444 
1415.544 10168907 10255274 10375252 10554093 10805967 11119034 11447330 
1418.920 11730392 11926037 12038098 12104087 12170019 12265986 12404965 
1422.295 12589999 12821557 13103126 13440478 13835863 14282592 14763374 
1425.670 15258758 15755087 16252844 16767839 17328996 17969330 18714830 
1429.045 19573274 20530154 21557320 22627898 23726806 24851238 26001946 
1432.421 27176170 28364824 29560642 30769506 32015416 33346836 34824168 
1435.796 36486804 38301104 40148016 41879544 43405280 44732540 45933432 
1439.171 47094628 48293412 49580260 50977340 52478448 54060444 55691316 
1442.546 57339036 58979972 60595704 62171164 63696996 65170416 66601992 
1445.922 68016912 69452168 70941064 72496072 74101232 75716968 77309000 
1449.297 78873592 80440048 82060056 83781344 85624488 87565344 89538232 
1452.672 91464424 93269304 94918136 96413824 97780984 99043528 100200144 
1456.047 101209032 101994552 102514360 102815664 102995304 103128728 
1458.940 103223016 103250760 103184320 103017528 102761464 102431504 
1461.833 102029080 101528600 100867968 99957664 98702280 97048376 95021216 
1465.209 92708136 90196816 87523464 84660544 81568504 78235992 74705592 
1468.584 71046640 67342768 63650532 59951876 56169884 52188808 47940760 
1471.959 43515216 39219644 35449284 32435156 30145512 28372712 26879972 
1475.334 25511204 24198334 22947650 21796182 20775160 19884854 19097910 
1478.710 18376192 17686730 17010456 16344316 15695686 15076598 14497170 
1482.085 13963439 13478277 13044974 12666580 12345101 12076729 11849212 
1485.460 11642541 11433722 11205658 10952295 10681047 10407356 10145470 
1488.835 9901674 9672888 9454483 9250809 9073857 8935669 8838912 8775717 
1492.693 8730987 8687412 8629105 8545833 8433217 8294050 8135583 7967116 
1496.550 7795072 7622556 7451188 7286693 7138765 7017387 6927622 6866353 
1500.408 6823032 6784966 6741889 6689293 6627250 6558185 6482237 6394297 
1504.265 6282305 6128703 5916070 5644860 5356846 5142008 5072039 5121690 
1508.122 5198642 5232444 5205315 5128965 5028662 4927746 4844610 4785912 
1511.980 4747052 4716771 4684315 4643656 4596169 4547047 4503254 4469106 
1515.837 4443865 4423346 4403263 4384887 4373708 4375382 4390376 4409923 
1519.695 4416986 4386895 4296835 4144001 3959454 3792298 3675996 3613881 
1523.552 3589158 3580505 3571017 3552075 3523146 3490412 3461654 3442717 
1527.410 3434702 3434935 3440647 3449731 3461554 3475248 3489276 3500532 
1531.267 3505676 3502804 3492082 3477886 3465428 3456578 3445422 3421911 
1535.124 3376194 3303037 3201819 3075731 2932099 2783012 2651544 2570010 
1538.982 2576809 2692917 2895373 3110036 3260604 3316525 3289749 3210999 
1542.839 3111004 3016437 2947377 2915920 2923159 2958920 3007229 3054008 
1546.697 3092316 3121616 3145312 3166906 3187166 3201218 3200617 3177687 
1550.554 3131962 3071727 3011099 2963524 2939771 2943975 2972798 3013868 
1554.411 3050871 3070258 3065587 3036257 2982240 2899142 2774975 2597442 
1558.269 2381066 2199331 2147582 2232235 2378501 2520350 2629476 2701919 
1562.126 2742764 2762137 2770974 2779377 2791982 2806322 2812425 2799752 
1565.984 2762571 2704120 2635643 2574710 2540113 2547179 2599375 2682482 
1569.841 2769073 2832835 2864420 2869089 2857716 2837938 2813125 2782278 
1573.699 2743698 2698419 2653411 2623209 2626042 2671714 2750933 2839906 
1577.556 2918189 2977369 3020174 3053307 3082171 3107767 3127390 3135667 
1581.413 3128992 3108367 3080936 3056577 3044231 3048102 3065787 3088812 
1585.271 3107400 3114508 3109202 3096454 3084440 3082004 3094952 3124553 
1589.128 3167507 3218676 3272322 3323804 3370283 3410857 3445790 3477085 
1592.986 3508282 3544058 3587988 3641345 3701226 3760613 3810147 3841703 
1596.843 3851965 3842672 3820276 3793401 3770740 3759142 3764189 3789925 
1600.701 3839062 3912243 4007004 4116137 4226936 4324008 4392652 4423848 
1604.558 4417153 4380435 4325749 4264444 4205323 4152264 4105968 4066333 
1608.415 4035296 4016435 4014161 4029043 4055831 4083592 4098843 4089411 
1612.273 4049644 3980118 3887836 3781669 3670917 3565170 3474379 3408486 
1616.130 3375059 3373589 3391054 3406449 3401907 3366811 3300065 3207694 
1619.988 3101092 2995284 2907581 2856849 2856849 2910183 3000689 3099424 
1623.845 3176418 3215205 3216339 3189669 3147248 3097321 3045666 2995985 
1627.703 2951414 2915353 2890836 2878262 2874592 2874759 2872858 2864186 
1631.560 2847076 2823030 2796084 2770940 2751467 2738329 2727026 2708054 
1635.417 2672414 2620242 2564310 2520483 2498388 2499121 2518184 2549445 
1639.275 2586509 2623376 2654278 2675014 2682349 2674614 2652378 2616509 
1643.132 2568810 2509952 2439673 2356712 2259745 2151345 2043304 1957823 
1646.990 1920880 1943711 2016307 2117415 2228704 2338890 2443138 2541180 
1650.847 2632943 2715056 2776209 2790615 2727359 2588242 2430843 2312873 
1654.704 2249753 2228838 2233300 2250453 2271403 2290988 2305645 2314605 
1658.562 2317237 2314006 2303646 2284726 2255249 2215449 2170558 2132765 
1662.419 2117248 2136061 2189373 2265574 2346218 2415716 2465597 2494023 
1666.277 2505453 2508786 2516284 2539980 2588542 2661879 2749399 2832835 
1670.134 2896140 2934367 2952615 2960921 2968595 2981906 3003659 3033153 
1673.992 3065353 3091648 3100725 3084274 3042763 2984842 2922091 2863719 
1677.849 2815893 2781911 2762470 2756669 2762037 2775342 2793350 2815260 
1681.706 2841873 2874292 2911917 2947944 2968728 2960254 2923626 2875360 
1685.564 2831735 2798819 2775042 2755835 2738129 2721057 2707854 2704287 
1689.421 2716190 2745365 2788581 2837604 2883999 2922291 2952481 2979070 
1693.279 3010698 3056444 3123619 3212300 3309848 3392657 3440747 3451868 
1697.136 3441982 3432230 3440713 3478955 3552309 3656448 3774717 3882387 
1700.994 3963667 4017739 4051250 4068273 4068206 4047504 4003694 3939525 
1704.851 3865839 3799953 3758039 3747478 3764456 3799151 3842706 3890912 
1708.708 3942401 3996905 4052688 4104965 4147848 4177454 4193981 4202780 
1712.566 4212850 4233795 4271203 4322704 4375482 4410492 4406476 4350113 
1716.423 4241658 4098944 3953067 3834215 3757973 3719806 3705002 3699321 
1720.281 3693941 3683682 3664368 3631923 3581874 3511355 3422111 3321367 
1724.138 3220913 3133164 3067589 3028082 3013368 3017371 3033287 3053174 
1727.995 3071627 3085775 3095019 3100492 3104096 3106932 3108968 3108267 
1731.853 3100392 3078534 3033654 2959253 2858750 2751100 2659379 2594475 
1735.710 2551412 2518517 2484358 2440140 2381232 2308643 2231169 2163632 
1739.568 2123075 2120911 2157805 2226273 2315105 2414184 2513618 2604575 
1743.425 2678581 2727259 2745331 2730794 2686516 2618909 2537947 2455234 
1747.283 2381799 2325964 2291055 2275933 2275433 2283893 2296717 2309442 
1751.140 2317437 2314838 2295785 2257447 2200163 2128236 2047099 1964380 
1754.997 1887034 1820416 1767615 1728226 1699552 1678696 1665424 1662431 
1758.855 1674671 1705273 1755006 1819252 1888166 1947372 1983719 1991242 
1762.712 1972235 1934292 1885071 1829833 1770842 1710562 1653284 1606489 
1766.570 1580882 1587167 1631200 1709498 1809237 1913724 2006087 2074332 
1770.427 2109790 2106627 2063345 1986248 1892625 1804479 1740468 1708333 
1774.285 1706570 1727893 1762758 1801285 1833759 1852892 1854090 1835024 
1778.142 1794431 1731786 1647663 1546431 1439372 1344404 1279731 1259194 
1781.999 1284948 1348260 1430496 1508426 1558735 1565219 1526780 1458189 
1785.857 1384889 1330046 1308710 1321704 1358962 1403304 1436879 1445356 
1789.714 1419859 1357832 1263248 1146093 1020268 902779 808095 744496 714758 
1794.054 717148 747517 799796 866557 939105 1008976 1069956 1118586 1154000 
1798.393 1176824 1186891 1183502 1165594 1134499 1094569 1052983 1015983 
1802.251 985795 958464 925225 876982 807896 719538 621276 529705 463295 
1806.590 436196 453974 510232 588361 665211 720301 740049 722525 677390 
1810.930 622670 578043 557008 564606 596059 641219 686848 720732 733411 
1815.270 719836 681272 626121 569317 527217 514478 537634 593206 667633 
1819.609 741775 797439 820543 806136 757474 684093 596590 505886 419878 
1823.949 345128 287466 253151 246454 268501 314887 375803 436163 478586 
1828.288 485452 443991 354977 238929 131992 67333 62395 111676 194706 282957 
1833.110 348345 370032 337236 254544 141803 29954 -50261 -74810 -34789 61666 
1837.932 191291 324967 438087 515341 554421 561852 548184 523070 492087 
1842.272 457623 419480 378721 340718 313528 304409 314622 337336 361244 
1846.611 376565 377461 365290 346521 331500 329941 345294 375007 410923 
1850.951 444289 468801 483130 490694 496797 505057 514412 518857 510663 
1855.290 484225 439878 385188 333423 299436 292108 312831 353750 402002 
1859.630 443128 466943 469166 451686 420177 380877 338563 294329 248476 
1863.970 200175 150023 99115 49074 960 -44529 -87266 -125327 -154774 -170308 
1868.791 -167923 -147023 -112740 -72325 -33132 -66 25016 42778 55801 68891 
1873.613 86886 115023 157713 217645 294462 383298 475269 557407 615602 
1877.953 638830 620347 560923 467739 354645 235879 124867 31412 -39228 
1882.292 -82893 -95548 -72789 -9940 93414 232398 394905 564473 724085 857891 
1887.114 956306 1015153 1036376 1026478 995691 954181 910184 868715 831631 
1891.454 798800 768959 740879 714095 689569 669525 658043 658906 673208 
1895.793 697700 722857 735933 721828 669525 575588 447009 301392 163116 
1900.133 58518 6626 16335 83837 194175 323608 446047 538695 583517 571175 
1904.955 498389 368507 189866 -23392 -251944 -473657 -663532 -798987 -862946 
1909.294 -846875 -754039 -599047 -406794 -204256 -16301 136666 242708 296120 
1913.634 298010 255638 181148 89371 -5964 -93328 -165804 -221775 -264627 
1917.974 -299958 -332803 -362732 -384284 -386965 -360017 -296448 -198692 
1921.831 -83025 21935 79396 60937 -42674 -216510 -428245 -636435 -799847 
1926.171 -888937 -889466 -804610 -652052 -458730 -253103 -57450 112471 
1930.028 250665 359487 446346 520118 587134 648419 697302 720069 698198 
1934.368 616067 465451 251228 -7024 -275554 -514531 -686458 -766574 -750764 
1938.707 -654996 -510030 -348397 -201871 -94786 -42343 -52646 -126652 
1942.565 -260090 -443140 -662010 -897270 -1124173 -1316670 -1448587 -1498021 
1946.422 -1454729 -1319775 -1106921 -840228 -550504 -269064 -21635 173093 
1950.279 306531 376963 388372 344299 247946 100407 -96144 -334458 -597591 
1954.619 -858349 -1078663 -1220630 -1257899 -1186762 -1030537 -835763 
1957.994 -658966 -545176 -517113 -566222 -658205 -742826 -776828 -737632 
1961.852 -627734 -468428 -286912 -108301 53879 192882 304111 378688 400543 
1966.191 353883 232563 51294 -151661 -325850 -421724 -413713 -301978 -110156 
1970.531 127187 371856 593338 773008 899658 963811 951159 841989 620447 
1974.870 284714 -138312 -593885 -1010075 -1316802 -1472495 -1470679 -1343460 
1978.728 -1145092 -941906 -787709 -709780 -710607 -768790 -852166 -922101 
1982.585 -945576 -896542 -761481 -539352 -242804 103224 465318 798734 
1986.443 1055341 1196792 1202307 1080286 869445 630169 424157 300662 277586 
1990.782 331864 399017 392252 240155 -91175 -576149 -1140994 -1679691 
1994.640 -2096919 -2332359 -2375266 -2264068 -2070539 -1873658 -1730947 
1998.015 -1664574 -1657412 -1667875 -1649886 -1575511 -1445945 -1289185 
2001.390 -1144729 -1048552 -1019860 -1054039 -1126387 -1203416 -1256247 
2004.766 -1264870 -1223241 -1135079 -1010439 -858316 -684969 -492126 -279627 
2008.623 -48604 194474 437523 660399 836246 938773 941861 829540 599775 
2012.963 268999 -132615 -566222 -993546 -1388050 -1730815 -2005142 -2189040 
2016.820 -2245246 -2130156 -1812224 -1288128 -600966 166629 895143 1464771 
2020.677 1781688 1805244 1569343 1170445 746023 419082 280039 361112 636208 
2025.017 1034350 1469060 1863208 2160069 2333593 2378367 2305311 2136294 
2028.874 1905072 1654514 1426939 1258895 1169149 1152039 1180213 1213704 
2032.732 1216528 1169149 1079057 974238 892453 859518 880401 932995 978954 
2037.071 975168 893118 728200 499418 241813 -5864 -208594 -346874 -418182 
2041.411 -434401 -415269 -383655 -362931 -373591 -435560 -563112 -760522 
2045.268 -1016554 -1302399 -1573399 -1774838 -1858911 -1798101 -1597333 
2048.644 -1296255 -959561 -658238 -445788 -352105 -375014 -488816 -650397 
2052.501 -815788 -947725 -1020091 -1021182 -950535 -815325 -627072 -401829 
2056.358 -158716 82180 298010 468138 577844 621044 603757 543605 465915 
2060.698 396961 357232 357199 394872 456727 520018 559895 550904 477425 
2065.038 335446 137229 -91307 -313831 -487889 -578830 -561457 -427417 
2068.895 -185709 138058 506218 875288 1199217 1439007 1567347 1571205 
2072.752 1456061 1245104 978854 705200 474340 324735 272215 308388 401405 
2077.092 509071 586935 604321 551269 439811 296617 155956 48113 -8681 -9476 
2081.914 37542 115189 201998 277950 327554 342509 322314 274801 214629 
2086.253 158409 120790 110250 125761 157779 191092 211579 210551 187711 
2090.593 151283 114426 90365 88012 111874 160829 231403 317672 413577 509569 
2095.415 593803 653198 675631 655089 594865 508142 414074 331566 273607 
2099.754 242608 231237 227126 219469 201766 174916 143726 113167 84201 53647 
2104.576 15639 -33033 -92301 -157192 -222140 -283733 -343563 -406000 -473293 
2108.916 -540047 -592496 -609404 -572774 -476338 -333399 -173985 -38201 
2112.773 38370 41253 -18521 -104823 -173388 -182861 -113535 27634 209954 
2117.113 393048 540520 629605 656948 634449 582091 518194 456993 406778 
2121.452 372155 356768 363732 392650 436826 482268 508474 494508 427341 
2125.792 306763 147272 -27400 -188160 -311149 -383423 -404113 -382165 
2129.649 -331743 -267739 -201772 -142916 -97800 -71861 -68317 -85510 -115887 
2133.989 -144009 -149077 -112442 -22000 119928 294263 467408 602098 664978 
2138.329 637204 522573 348875 162552 12591 -58808 -35352 70117 215060 342973 
2143.150 401571 358724 217811 16865 -182132 -318698 -346476 -250454 -48439 
2147.490 218076 500048 757972 963280 1100914 1160146 1129150 995260 753193 
2151.830 415965 19383 -375014 -694166 -876967 -885531 -722251 -424637 -52017 
2156.169 343437 730424 1104900 1476574 1847502 2189440 2445138 2541980 
2160.027 2425212 2086384 1569276 963047 377792 -77659 -333233 -367433 
2163.884 -209985 75850 408138 710311 931534 1047701 1061984 996522 878940 
2168.224 728399 552032 344366 94309 -203097 -537995 -881861 -1188712 
2172.081 -1406380 -1494917 -1437128 -1248615 -973876 -675805 -409012 -202236 
2175.938 -48339 89769 263429 517331 865793 1288670 1736909 2150712 2475461 
2180.278 2680915 2766705 2758336 2691384 2599842 2502454 2397857 2273668 
2184.135 2114052 1914257 1685714 1455297 1257100 1124366 1077330 1119383 
2187.993 1235634 1398185 1569043 1707069 1776298 1748519 1606988 1352647 
2191.850 1003795 596988 181181 -185146 -450753 -582470 -569002 -425265 
2195.708 -185113 106307 407773 687777 928911 1127489 1286909 1409786 1495326 
2200.047 1539814 1540679 1502474 1439073 1370363 1315589 1286178 1280794 
2203.905 1284416 1276806 1243044 1180711 1105166 1043517 1026545 1074473 
2207.762 1187157 1340848 1496456 1607320 1634625 1561063 1392866 1159215 
2211.620 902215 669757 501673 419978 428302 511692 641617 782933 905701 
2215.959 989282 1027375 1026910 1004824 978024 957767 946012 935220 915065 
2220.299 876484 817855 745957 671980 605515 550970 505190 462233 419945 
2224.638 386017 378787 424455 545330 748347 1018042 1318614 1600303 1814128 
2228.978 1929633 1938220 1856686 1715053 1549989 1389576 1249856 1136160 
2232.835 1048366 987555 960025 973707 1033287 1132406 1250521 1353678 
2236.693 1403670 1370729 1240884 1023556 748479 460475 203556 11199 -99324 
2241.032 -129965 -96276 -21437 74624 176507 277652 377627 478818 581493 
2245.372 682699 774934 849226 898397 919913 916991 898463 876052 858854 
2249.712 852148 853841 855335 844014 808294 742007 648652 541349 440508 
2254.051 369601 345493 375007 451420 557771 671151 771813 849525 905203 
2258.391 949067 993599 1047602 1108919 1164897 1195363 1183602 1121044 
2262.248 1013858 880501 746986 636540 562649 526885 520980 532326 549975 
2266.588 569748 592642 622305 660465 705101 750404 792028 829241 866955 
2270.927 913139 974305 1048831 1125994 1185961 1209052 1181010 1100449 
2274.785 978555 836910 699094 583186 499849 450956 433145 442531 476596 
2279.125 533487 609231 696206 781440 850654 892985 904174 888370 854903 
2283.464 814601 772544 728134 674602 604619 515905 413908 311969 227657 
2287.804 176739 167756 200573 266943 355143 452283 549146 638896 717148 
2292.143 781074 829042 861577 881497 895442 910682 932763 963213 998282 
2296.483 1030796 1053248 1062283 1060423 1055274 1055042 1064375 1080120 
2300.340 1092310 1086331 1050159 979485 880899 769921 666239 588892 548947 
2304.680 548416 580432 633653 694846 753325 803016 842188 873562 902414 
2309.020 936382 982075 1042852 1117025 1196194 1266205 1310504 1316752 
2312.877 1280727 1209717 1119516 1030796 961187 919415 903676 903278 905137 
2317.217 898065 877978 847400 813971 784062 760794 742737 725810 706594 
2321.556 685985 668231 660266 666737 687943 719339 754421 787116 814668 
2325.896 837341 857858 878310 898596 916957 931999 944219 959394 986625 
2330.235 1035114 1110016 1208188 1317882 1421620 1503239 1550821 1561495 
2334.093 1540712 1499382 1450343 1404833 1371593 1355971 1359727 1382230 
2337.950 1419061 1461181 1495791 1509423 1490272 1434519 1348725 1250488 
2341.808 1163468 1111245 1109916 1162737 1259792 1379371 1496888 1589395 
2345.665 1641743 1651255 1623384 1569309 1501543 1432225 1371161 1327221 
2349.522 1308278 1319544 1363150 1435283 1525849 1618595 1694795 1739869 
2353.380 1747488 1722571 1680026 1642707 1632863 1667253 1753077 1885071 
2357.237 2047632 2218247 2374803 2498688 2580576 2620009 2624509 2604609 
2361.095 2568177 2518784 2454368 2370438 2264242 2138925 2005288 1879414 
2364.952 1776930 1710030 1681523 1686180 1711793 1744460 1772406 1786945 
2368.810 1784250 1762325 1720043 1657209 1575728 1481761 1385919 1303558 
2372.667 1250022 1235601 1261719 1318481 1387614 1446088 1475277 1463907 
2376.524 1412113 1328916 1227992 1122373 1018806 918618 818485 714792 608435 
2380.864 506085 419745 363566 347383 373912 436130 519388 604520 673772 
2385.204 716385 729329 718243 693817 668562 652302 650809 665377 694447 
2389.543 734904 783431 837408 893317 946776 992470 1023755 1035114 1022858 
2393.883 986492 929044 856497 776859 698098 628211 573431 538662 526620 
2398.222 537800 570379 620115 681140 746554 809556 864531 907461 935951 
2402.562 949100 947407 932730 907826 876782 844180 814170 789705 771548 
2406.902 757972 745691 731419 713265 692191 671748 657611 655454 669060 
2411.241 698961 741974 792194 840694 878675 897965 892420 860249 804078 
2415.581 731884 655654 590087 548549 539326 563710 614408 677722 736597 
2419.920 776726 789705 775730 742107 700853 664315 640555 632724 638299 
2424.260 652468 670122 688175 707192 729727 758337 793887 833590 871835 
2428.600 900688 913172 905403 878276 837972 794252 758437 739783 742837 
2432.939 766669 804510 846371 881762 904041 911047 906166 895209 885448 
2437.279 881098 882460 885946 886676 880302 865793 845475 824892 809755 
2441.618 803879 807464 816693 825556 827648 818220 796145 762918 722126 
2445.958 677821 633421 590485 549113 508772 469166 431088 396762 370032 
2450.298 355010 355309 372984 407972 457921 519122 587101 658109 729196 
2454.637 797771 861211 915231 954280 971980 963313 926753 866125 790999 
2458.977 713763 647756 602927 583020 586039 604984 631961 660266 686649 
2463.316 711008 734473 757275 777390 790767 793024 782402 760827 733743 
2467.656 709249 694282 692224 701649 716982 731552 739817 739451 732979 
2471.996 725578 723354 730623 748546 775232 806203 836445 861809 879936 
2476.335 890627 894778 894313 890860 885747 879472 872001 863469 854306 
2480.675 845774 840163 840296 848728 866822 894213 928612 966069 1002234 
2485.014 1033453 1057799 1075237 1086829 1094137 1097924 1098090 1093440 
2488.872 1083142 1066833 1045377 1019670 991042 959162 922901 879571 827249 
2493.211 764743 693120 615735 537999 466180 406479 364693 345360 351362 
2497.551 383463 439612 514644 600439 688341 769789 839765 897799 948004 
2501.891 997850 1054511 1122506 1201277 1284549 1361754 1421521 1454233 
2505.748 1455031 1424778 1369865 1299770 1224204 1151807 1087560 1032556 
2509.605 984832 941330 898961 856729 816162 781506 758437 752263 766237 
2513.945 800560 851949 914334 980149 1041391 1090085 1119649 1124898 1103040 
2518.285 1054411 984433 903709 826253 768428 743434 757707 808294 883456 
2522.624 966036 1037804 1087029 1110746 1115032 1111809 1114434 1131874 
2526.482 1166226 1212209 1260623 1302428 1330778 1343873 1343407 1332439 
2530.339 1313728 1288604 1256967 1219220 1177023 1134166 1095167 1064707 
2534.197 1045509 1038501 1042354 1054975 1073975 1097060 1122041 1145960 
2538.054 1165328 1176757 1178020 1169515 1153833 1135429 1119051 1106594 
2541.911 1097858 1090350 1081382 1070188 1058795 1052252 1055607 1071118 
2545.769 1096828 1125961 1150212 1162405 1160710 1149548 1138485 1137621 
2549.626 1154066 1187788 1232145 1275477 1305852 1315922 1304290 1276441 
2553.484 1241217 1208454 1184764 1172870 1171907 1179681 1193469 1212142 
2557.341 1235468 1262882 1293323 1324795 1355240 1383725 1411847 1443162 
2561.198 1481395 1528209 1581414 1634293 1676367 1696658 1688142 1650191 
2565.056 1590326 1522224 1463275 1428834 1427770 1460317 1517869 1585704 
2568.913 1646599 1687743 1702213 1692001 1665757 1636754 1617597 1616865 
2572.771 1637086 1674471 1721806 1770044 1813462 1849665 1880911 1911295 
2576.628 1945542 1985849 2031187 2076729 2115650 2141289 2149080 2138126 
2580.486 2111322 2075231 2038044 2007519 1989444 1986348 1996234 2013877 
2584.343 2032552 2045335 2048531 2042705 2033084 2027159 2032985 2056221 
2588.200 2097671 2153076 2214650 2274234 2325132 2364975 2395026 2418648 
2592.058 2439273 2458033 2473128 2481426 2479860 2467697 2448137 2427145 
2595.915 2412218 2410019 2424146 2455367 2501287 2557344 2618442 2678481 
2599.773 2730660 2767973 2783512 2772207 2733027 2671014 2597509 2527049 
2603.630 2475828 2455867 2471629 2519850 2590609 2670547 2746699 2810157 
2607.488 2857349 2888635 2906981 2916020 2918289 2915787 2909983 2902711 
2611.345 2895773 2890403 2886100 2880663 2870390 2851712 2823897 2789348 
2615.202 2753667 2724859 2710055 2712722 2731794 2761804 2795084 2823330 
2619.060 2841607 2848010 2844742 2835737 2826098 2819929 2819895 2826865 
2622.917 2840773 2861018 2886467 2915687 2946910 2978069 3006828 3030884 
2626.775 3048569 3058613 3061049 3056143 3045432 3030951 3015203 3000522 
2630.632 2989379 2982973 2981706 2984308 2989546 2995485 3001190 3006595 
2634.490 3012567 3020141 3030151 3042529 3056010 3069457 3081570 3091915 
2638.347 3101193 3110837 3122351 3137235 3156125 3179055 3205458 3234365 
2642.204 3264243 3293488 3319697 3340465 3353588 3358129 3354556 3345774 
2646.062 3335123 3326642 3323370 3326442 3335123 3347277 3360934 3374825 
2649.919 3389117 3405347 3425017 3448996 3476684 3505543 3532399 3554347 
2653.777 3569012 3577030 3580605 3584079 3592131 3609103 3637503 3676731 
2657.634 3723015 3770105 3810448 3836989 3846149 3838560 3820343 3800287 
2661.491 3789424 3796176 3823919 3870385 3927923 3986405 4035564 4069009 
2665.349 4084695 4084929 4074260 4057805 4039577 4021752 4005901 3993394 
2669.206 3986973 3989616 4003961 4030581 4066801 4107440 4145607 4174844 
2673.064 4191505 4194449 4185684 4168455 4145908 4120117 4091585 4061216 
2676.921 4029745 3999781 3974735 3957849 3951462 3955575 3968315 3985970 
2680.779 4004764 4021719 4034628 4042554 4044728 4040681 4030113 4013726 
2684.636 3993628 3973565 3957849 3950526 3953067 3963533 3976574 3985302 
2688.493 3982894 3965773 3934711 3895559 3856679 3827061 3813791 3819340 
2692.351 3841469 3873628 3907930 3936316 3953301 3957180 3949824 3936148 
2696.208 3922039 3913011 3912243 3920300 3934276 3949422 3960089 3961493 
2700.066 3951362 3929729 3900273 3867744 3838393 3816933 3806437 3807340 
2703.923 3817501 3833245 3849625 3862262 3868346 3866741 3858919 3848790 
2707.781 3841803 3843475 3858819 3890077 3936550 3994297 4057203 4118612 
2711.638 4172670 4216163 4249119 4274248 4295999 4319256 4347402 4381741 
2715.495 4421572 4464654 4508075 4549525 4587798 4623060 4656047 4687664 
2719.353 4718077 4746851 4772444 4793081 4807822 4816433 4820620 4823301 
2723.210 4828394 4839785 4860425 4891219 4931164 4976777 5022327 5061412 
2727.068 5087762 5095942 5083270 5049814 4999066 4936526 4869204 4804137 
2730.925 4746081 4697511 4657554 4623294 4590543 4555351 4515876 4471918 
2734.782 4425488 4379197 4335487 4295396 4258622 4224092 4190368 4157014 
2738.640 4124499 4094629 4069477 4050547 4038139 4031350 4028407 4027404 
2742.497 4026334 4024562 4021484 4017003 4010449 4001019 3987709 3969819 
2746.355 3947450 3922072 3896161 3873093 3855944 3847018 3847252 3855710 
2750.212 3870352 3888104 3906191 3922407 3935580 3945878 3954739 3963901 
2754.070 3974869 3988913 4005868 4025097 4045564 4066366 4087538 4109480 
2757.927 4133163 4158954 4186286 4213085 4236505 4253469 4261533 4260395 
2761.784 4251562 4238513 4225497 4216229 4212850 4216129 4225263 4238880 
2765.642 4256179 4277159 4302792 4334484 4373105 4417823 4466294 4514302 
2769.499 4556992 4590443 4612544 4624299 4629188 4633877 4645230 4669343 
2773.357 4709603 4765510 4833218 4905964 4976810 5039624 5091752 5133894 
2777.214 5170039 5206086 5247972 5300259 5365433 5443703 5533263 5631266 
2781.072 5734126 5837816 5938474 6032302 6116102 6188424 6249698 6303014 
2784.929 6352805 6405024 6464446 6533933 6613624 6701003 6791933 6882141 
2788.786 6968260 7048705 7124113 7196771 7269812 7346808 7430593 7523226 
2792.644 7625557 7736716 7854414 7974979 8094363 8209153 8317387 8419670 
2796.501 8518834 8619034 8724632 8838777 8962221 9093616 9229587 9366820 
2800.359 9502131 9634402 9764002 9892793 10023420 10158766 10301313 10452733 
2804.216 10613712 10783990 10962048 11145516 11331340 11516700 11699484 
2807.591 11879143 12056391 12233268 12411920 12594706 12783336 12979387 
2810.967 13184272 13400187 13629920 13875819 14139758 14421499 14718675 
2814.342 15027511 15343226 15661677 15980639 16299833 16620744 16945992 
2817.717 17278206 17619680 17972440 18338308 18719326 19118164 19537818 
2821.092 19981084 20450506 20947732 21474106 22030540 22617670 23236180 
2824.468 23886586 24569278 25284758 26034488 26821356 27650542 28529362 
2827.843 29465918 30469000 31546160 32703656 33947112 35282208 36715812 
2831.218 38257028 39915520 41701116 43621264 45680220 47879560 50219780 
2834.593 52702168 55331776 58117384 61070360 64201748 67518808 71021632 
2837.969 74701624 78543856 82527840 86630576 90831568 95111872 99456152 
2841.344 103853416 108295152 112776120 117293792 121846696 126433672 
2844.237 131051360 135692576 140345136 144990608 149603952 154155280 
2847.130 158606192 162909696 167013152 170852496 174359024 177466096 
2850.023 180108192 182231600 183795632 184772528 185148704 184924448 
2852.916 184115120 182749664 180875808 178556576 175862752 172874048 
2855.809 169665680 166303296 162845968 159339952 155825680 152342112 
2858.702 148924672 145609904 142432864 139422496 136603888 133995352 
2861.595 131607744 129447208 127515136 125808952 124321560 123042312 
2864.488 121956248 121043344 120281120 119642856 119098744 118619312 
2867.381 118172512 117726568 117252552 116722096 116109800 115393904 
2870.274 114554168 113575208 112446288 111163792 109733992 108174928 
2873.167 106515824 104793264 103050592 101330688 99671384 98106928 96664144 
2876.543 95364168 94224128 93255912 92467176 91860944 91435472 91186624 
2879.918 91109504 91200608 91459192 91886200 92482096 93244256 94165104 
2883.293 95232240 96429296 97741440 99156504 100666720 102268440 103958640 
2886.668 105731352 107576896 109480248 111425032 113396376 115383016 
2889.562 117379440 119384472 121398320 123421424 125451816 127485368 
2892.455 129517304 131542472 133555904 135553584 137531168 139485616 
2895.348 141415328 143322128 145211360 147092192 148974624 150865920 
2898.241 152768784 154680256 156594336 158504800 160409952 162314656 
2901.134 164230000 166169696 168146656 170169888 172243072 174366288 
2904.027 176538768 178761200 181037600 183373856 185776160 188248608 
2906.920 190792928 193408576 196094048 198849008 201674144 204571840 
2909.813 207545072 210597152 213731648 216952384 220262416 223663152 
2912.706 227150880 230713856 234330592 237971344 241598336 245173040 
2915.599 248658640 252020512 255228224 258250000 261049392 263586288 
2918.492 265812992 267679424 269137952 270143840 270660896 270663648 
2921.385 270137888 269083520 267514592 265458048 262948192 260023408 
2924.278 256721312 253074144 249114080 244875408 240398080 235733152 
2927.171 230936416 226063296 221164464 216274448 211414224 206592128 
2930.064 201809920 197069280 192376128 187740336 183175984 178697296 
2932.958 174316304 170043808 165889088 161861376 157971136 154227920 
2935.851 150639232 147209408 143937840 140822272 137860272 135052480 
2938.744 132404504 129926232 127629008 125524368 123620200 121919912 
2941.637 120423936 119130432 118037656 117144576 116451016 115954680 
2944.530 115650568 115528640 115572824 115762672 116075480 116485808 
2947.423 116969824 117504712 118067616 118637992 119194776 119716096 
2950.316 120179904 120562120 120837480 120982056 120972512 120790128 
2953.209 120422760 119864440 119116264 118184480 117079360 115812296 
2956.102 114396712 112847704 111180312 109411184 107556104 105627296 
2958.995 103634048 101580968 99469320 97299632 95072936 92791576 90459448 
2962.370 88079800 85654512 83184216 80669808 78114848 75528064 72923912 
2965.746 70322472 67745736 65213420 62741564 60338828 58008608 55750232 
2969.121 53561596 51441748 49391440 47413036 45509900 43684976 41939208 
2972.496 40272040 38680564 37160660 35707496 34316116 32982264 31702534 
2975.871 30475008 29299004 28174502 27102630 26083850 25118284 24204324 
2979.247 23339274 22519144 21739710 20996832 20287160 19608596 18959920 
2982.622 18341108 17751478 17190292 16656067 16145743 15655804 15182990 
2985.997 14724502 14278997 13848076 13434805 13043949 12680704 12348986 
2989.372 12050054 11782308 11540858 11319063 11109244 10905099 10702374 
2992.748 10499506 10297208 10097718 9904149 9718324 9541723 9374132 9215034 
2996.605 9063808 8919874 8783492 8654726 8534208 8421359 8314956 8212935 
3000.462 8112356 8010214 7904351 7793824 7679987 7565201 7453615 7349369 
3004.320 7255492 7173157 7101041 7035639 6972031 6905840 6833567 6753768 
3008.177 6667086 6575677 6481934 6387606 6293264 6197902 6100174 5998302 
3012.035 5892391 5783617 5675441 5572227 5478867 5399585 5336418 5289962 
3015.892 5257966 5236770 5221881 5208333 5192438 5171380 5143919 5110258 
3019.750 5071201 5028059 4981938 4933711 4883143 4829935 4773617 4713756 
3023.607 4650789 4586023 4521400 4459565 4403263 4354731 4315609 4286194 
3027.464 4265615 4251796 4241691 4231419 4216865 4194148 4159991 4112424 
3031.322 4051785 3980152 3901611 3820944 3742632 3669547 3603323 3543356 
3035.179 3488575 3437674 3391021 3349547 3315190 3289215 3271320 3258601 
3039.037 3246349 3229391 3203855 3169209 3128491 3087510 3052706 3029850 
3042.894 3020441 3022343 3030184 3036523 3035322 3022343 2996719 2960488 
3046.751 2917455 2872558 2830868 2796951 2774275 2764871 2768806 2783245 
3050.609 2803187 2821463 2831101 2826232 2804755 2768206 2721991 2672847 
3054.466 2627709 2591075 2564010 2544113 2527215 2508919 2485891 2457467 
3058.324 2425479 2392827 2362742 2337724 2318269 2303513 2291088 2278298 
3062.181 2263409 2245723 2225907 2206091 2188341 2174155 2163765 2155907 
3066.039 2148781 2140889 2131999 2123841 2119046 2119945 2127271 2138692 
3069.896 2149080 2152244 2141955 2115251 2073133 2020268 1963215 1908732 
3073.753 1861444 1822579 1791037 1764321 1739869 1716916 1695460 1677032 
3077.611 1662930 1653417 1647829 1644537 1641543 1637120 1629703 1618129 
3081.468 1601500 1579386 1552483 1522424 1491768 1463076 1438209 1417332 
3085.326 1398650 1379570 1357699 1332672 1306450 1282888 1265973 1258596 
3089.183 1259991 1266837 1274480 1278401 1275942 1267501 1255173 1241682 
3093.041 1228357 1215166 1200613 1183469 1163933 1143967 1125928 1111976 
3096.898 1101844 1092742 1080385 1061419 1035180 1004393 974703 952155 
3100.755 940965 940965 948735 958066 963545 962018 953948 942193 930804 
3105.095 922403 918252 917157 918153 920145 922967 927052 932464 938009 
3109.435 941230 939968 933294 922934 913039 908557 913969 929708 952686 
3113.774 975899 991308 993167 978721 950794 915430 881098 854571 840562 
3118.114 839632 849392 865029 880999 892553 895940 889100 871968 846172 
3122.453 814966 782402 753425 732382 722857 726773 744397 774071 812676 
3126.793 855634 897201 931767 954181 961055 951425 926952 891723 850621 
3131.133 809390 772610 743136 722525 710643 706992 710178 718542 729860 
3135.472 741011 748811 749542 741244 723686 699293 672213 647988 631828 
3139.812 627116 634980 653463 678983 706727 731884 751002 762088 764876 
3144.151 760395 750239 735900 717945 696306 669691 637502 600273 560227 
3148.491 521776 490130 470692 467076 480543 508772 547951 592476 637170 
3152.831 677688 710809 734705 748280 751865 746853 736896 726607 721629 
3157.170 726806 745028 775631 815066 857493 896139 925757 942924 946078 
3161.510 935486 912541 879106 837972 793389 750770 715522 692755 684525 
3165.849 689967 704736 722989 739153 750438 756113 758636 760528 763283 
3170.189 766071 766901 763515 755018 742771 729594 718841 712004 707623 
3174.529 701981 690731 670620 641385 605880 570213 540785 523535 521876 
3178.868 537037 567725 611488 664248 720600 773705 816527 842221 847201 
3183.208 831465 799962 760926 722757 692058 671881 659835 650941 640090 
3187.547 623931 602595 578541 556279 539525 530004 527482 529738 534582 
3191.887 539757 544103 546757 547255 544866 539226 530534 519521 507910 
3196.227 497593 489433 483462 478089 470725 459314 442399 420210 394507 
3200.566 368109 344200 325995 316247 316014 325531 342310 361576 377063 
3204.906 382369 372619 346819 308786 266081 227955 202893 194871 202098 
3209.245 217678 231337 234055 220032 189236 146344 99579 57391 26938 11961 
3214.067 12856 27237 51327 80887 112438 143195 171568 196794 218176 235381 
3218.889 247581 253549 251924 241083 220330 189568 150487 105412 57458 9840 
3223.711 -34391 -72358 -101510 -119332 -123671 -113767 -90744 -58610 -22629 
3228.050 10271 34493 47185 49239 44799 39994 40955 51195 71310 98154 126689 
3233.354 150653 164906 166000 153238 129175 98386 68062 45992 38172 47649 
3238.176 73066 108626 144687 172165 183634 177137 155525 126225 97623 75883 
3242.998 64085 60639 61965 63158 61467 55668 46489 34858 21603 6792 -9542 
3248.302 -25843 -38930 -44562 -38036 -17196 17428 61401 108693 151846 184396 
3253.124 202695 204518 189800 160265 119630 73994 31478 1921 -6361 11033 
3257.945 52454 109024 165933 207236 221458 203789 158807 98054 36946 -11331 
3262.767 -38731 -44562 -33331 -12955 8581 26441 38470 45097 48345 49935 
3267.589 50963 51427 50267 46423 38172 24619 5102 -19482 -46749 -72623 
3272.411 -92666 -102637 -101146 -89154 -70702 -51454 -37174 -31012 -34491 
3276.750 -45755 -62022 -79878 -96376 -109427 -117510 -118901 -112707 -98628 
3281.090 -78056 -54104 -30846 -12491 -1756 1722 563 -364 3147 13783 30749 
3286.394 50830 69653 83373 89935 90730 88576 87515 90001 96231 104119 108527 
3291.698 103987 85825 51393 1424 -59935 -125526 -187233 -237373 -269792 
3296.037 -282077 -275124 -253037 -221411 -185875 -151363 -120392 -94156 
3299.895 -72822 -56788 -46020 -39957 -37207 -34988 -29885 -18885 -1358 21073 
3304.717 42910 58286 61103 48941 22598 -12888 -50427 -83092 -105750 -116218 
3309.538 -114131 -101146 -78884 -48803 -12590 27071 65809 98054 119033 
3313.878 125231 116647 96961 71608 46688 26474 11597 -165 -13551 -32735 
3318.700 -59935 -94587 -132582 -168188 -195446 -210052 -209720 -196274 
3322.557 -173521 -147255 -123936 -109527 -107871 -120392 -145930 -180609 
3326.415 -218927 -255421 -285322 -305487 -315685 -317043 -312176 -303269 
3330.272 -292143 -278998 -262673 -240917 -211939 -175044 -131687 -85245 
3334.129 -41514 -7024 13121 16037 3147 -20973 -48969 -73286 -89353 -95548 
3338.951 -94686 -91473 -91738 -98993 -113668 -132880 -151495 -164148 -166632 
3343.291 -157291 -136921 -107771 -72955 -35915 -563 29158 48610 54011 42877 
3348.113 15705 -23657 -68118 -108401 -137186 -149740 -146063 -130694 -111084 
3352.452 -94819 -86868 -88558 -97204 -108334 -116417 -118636 -115191 -108599 
3356.792 -103697 -104989 -115423 -135530 -163353 -195446 -228564 -259825 
3360.649 -287971 -312738 -333895 -351707 -364718 -371306 -369750 -359289 
3364.507 -341444 -318897 -296084 -277044 -264362 -257706 -255123 -252573 
3368.364 -246877 -236678 -222703 -208296 -197169 -193029 -197632 -210548 
3372.221 -228962 -249990 -270157 -287077 -300024 -309295 -316480 -323334 
3376.079 -331677 -342735 -356044 -369916 -381536 -387396 -384747 -373326 
3379.936 -355780 -337769 -325784 -325254 -338365 -362136 -389316 -410932 
3383.794 -419241 -410767 -387296 -355415 -323764 -298733 -283203 -275124 
3387.651 -270587 -264825 -255322 -243268 -231876 -225153 -225319 -231346 
3391.509 -239857 -245751 -245288 -236943 -222703 -206972 -194817 -190644 
3395.366 -197500 -216344 -246679 -285885 -330320 -374253 -411660 -436685 
3399.223 -445953 -439466 -421624 -400472 -384482 -381271 -393851 -420234 
3403.081 -454063 -487360 -512976 -526214 -526214 -513836 -490669 -457902 
3406.938 -416030 -366506 -312176 -259196 -215251 -187829 -181834 -197400 
3410.796 -228929 -268004 -304560 -331677 -345748 -347867 -342537 -334822 
3414.653 -329161 -327803 -331147 -338199 -347503 -357435 -366142 -371671 
3418.510 -372035 -366506 -355680 -342702 -332604 -330585 -339424 -358527 
3422.368 -382926 -405437 -418281 -417288 -403418 -382893 -364884 -359521 
3426.225 -373889 -409641 -462172 -522573 -579756 -622539 -643218 -638189 
3430.083 -608312 -558148 -494906 -427748 -365712 -317076 -287243 -278766 
3433.940 -289991 -315950 -350085 -384913 -414805 -436950 -451580 -461212 
3437.798 -468957 -477265 -486698 -495700 -501889 -502584 -496263 -482958 
3441.655 -464919 -445689 -428708 -417453 -414176 -420035 -435560 -459855 
3445.512 -491596 -527504 -562748 -591338 -606922 -604540 -582006 -540576 
3449.370 -484745 -421161 -358428 -304560 -266580 -249460 -254659 -280289 
3453.227 -321479 -371969 -424570 -472929 -512380 -540477 -557288 -565031 
3457.085 -567811 -569796 -574693 -585679 -603514 -626973 -653739 -679478 
3460.942 -699558 -709581 -706273 -688377 -656915 -615227 -568406 -521547 
3464.800 -480178 -448270 -428145 -420333 -423743 -436123 -454592 -476140 
3468.657 -498480 -519165 -536638 -549478 -557122 -559703 -558115 -553284 
3472.514 -546103 -536605 -523864 -506655 -484149 -457538 -429403 -404941 
3476.372 -389415 -386601 -398088 -421525 -452143 -483587 -510957 -531012 
3480.229 -544779 -555170 -567050 -583760 -606227 -632300 -657742 -678353 
3484.087 -690494 -692677 -684771 -667502 -642424 -611621 -578003 -545275 
3487.944 -518139 -500499 -495468 -503080 -521183 -545342 -570623 -593356 
3491.802 -611554 -625153 -635145 -642689 -647221 -646990 -639082 -621811 
3495.659 -595441 -563277 -530185 -501757 -481766 -471638 -469586 -472664 
3499.516 -478258 -484513 -491364 -500102 -511983 -527637 -546070 -564766 
3503.374 -581014 -592794 -599312 -601231 -599676 -595805 -590047 -582106 
3507.231 -572278 -560067 -545606 -529060 -510328 -489478 -467137 -444696 
3511.089 -424637 -410303 -405636 -412885 -433077 -463893 -501128 -539451 
3514.946 -573932 -601264 -620455 -631737 -635972 -633028 -621745 -600569 
3518.803 -568241 -525519 -475875 -425398 -380940 -349522 -337008 -345285 
3522.661 -373856 -418579 -473757 -533031 -591238 -644541 -690031 -725856 
3526.518 -751227 -766839 -775009 -780003 -786684 -799053 -817938 -841087 
3530.376 -863409 -877529 -877364 -859639 -825015 -778250 -726154 -676533 
3534.233 -635344 -605466 -586804 -576547 -570987 -567612 -565461 -566520 
3538.091 -573734 -589187 -613308 -643714 -675144 -700385 -713452 -709416 
3541.948 -686723 -647651 -598055 -547029 -504834 -481832 -485208 -516980 
3545.805 -572940 -643416 -715569 -777754 -822072 -846114 -852199 -845585 
3549.663 -832357 -817839 -805304 -796044 -789462 -784468 -779904 -775571 
3553.520 -771800 -768923 -766078 -762241 -755560 -745439 -732538 -719439 
3557.378 -709747 -707034 -713187 -727676 -747423 -768129 -785692 -798160 
3561.235 -805437 -809571 -812316 -814267 -813771 -807090 -790157 -759033 
3565.093 -713253 -656750 -599974 -556494 -539914 -556361 -602158 -666840 
3568.950 -737897 -805767 -862913 -904643 -929441 -937575 -932351 -919489 
3572.807 -906462 -899783 -903453 -917009 -936285 -953775 -962305 -957875 
3576.665 -940054 -913075 -883117 -856663 -837284 -825809 -819360 -813705 
3580.522 -804676 -789727 -768923 -744314 -719439 -697838 -683315 -678320 
3584.380 -684605 -702337 -729528 -761580 -790719 -808810 -810034 -795680 
3588.237 -773917 -755891 -750400 -760654 -785295 -819757 -858250 -894889 
3592.094 -925308 -946964 -958635 -960586 -952816 -935029 -906660 -868237 
3595.952 -821972 -771635 -723111 -681628 -651125 -633392 -626973 -628892 
3599.809 -634583 -640141 -642854 -641795 -637660 -631770 -625418 -619793 
3603.667 -615492 -612944 -612249 -612282 -611422 -606856 -595904 -577506 
3607.524 -553449 -529887 -515193 -517245 -539286 -579558 -631109 -685168 
3611.382 -731281 -759761 -764259 -743289 -702436 -651787 -603547 -566752 
3615.239 -545639 -540675 -549015 -566586 -587632 -606393 -617212 -616253 
3619.096 -603647 -582933 -559439 -538624 -523765 -515954 -515193 -520885 
3622.954 -532766 -550669 -574197 -601529 -629620 -653342 -666509 -662705 
3626.811 -636072 -584786 -515590 -447344 -406364 -413084 -465681 -545970 
3630.669 -632697 -711996 -775306 -818930 -840955 -841451 -823593 -793133 
3634.526 -758504 -727312 -705082 -693967 -692843 -697474 -702635 -703693 
3638.384 -698202 -687649 -676236 -670380 -675772 -694894 -726386 -764557 
3642.241 -802295 -833283 -854844 -868898 -880538 -895054 -916546 -944022 
3646.098 -971000 -984356 -968851 -913339 -820550 -709978 -612249 -555633 
3649.956 -550669 -587168 -642722 -697672 -741304 -772363 -794555 -813043 
3653.813 -831067 -848660 -861723 -863409 -847139 -811489 -763531 -715470 
3657.671 -680470 -666410 -675508 -704289 -745042 -786948 -819294 -834440 
3661.528 -829579 -807884 -777787 -750235 -734754 -736706 -755792 -786750 
3665.385 -820782 -849057 -865228 -866980 -856597 -840327 -827495 -826536 
3669.243 -841187 -866617 -891318 -903221 -897170 -874883 -841716 -802096 
3673.100 -759033 -715040 -673357 -640737 -627370 -640472 -678055 -728734 
3676.958 -781657 -829612 -869659 -902527 -929177 -951163 -969347 -983430 
3680.815 -991430 -990835 -979132 -955990 -923358 -886424 -851967 -826834 
3684.673 -815325 -817739 -830505 -847007 -858879 -857887 -838243 -798888 
3688.530 -745405 -687550 -635873 -597294 -573502 -562748 -562185 -569895 
3692.387 -583793 -603514 -628528 -658701 -694000 -733498 -775306 -816747 
3696.245 -854084 -883580 -903089 -912513 -913174 -907487 -897732 -884903 
3700.102 -869427 -851174 -830802 -810728 -794688 -786155 -785758 -790917 
3703.960 -796441 -796242 -785659 -763002 -730620 -694166 -661150 -638553 
3707.817 -630546 -636998 -654367 -677890 -704057 -732671 -765814 -805040 
3711.675 -847205 -883580 -903717 -901766 -878289 -839798 -794655 -750764 
3715.532 -713716 -685267 -664954 -650993 -642258 -639545 -644806 -659992 
3719.389 -684771 -715304 -744711 -765086 -771635 -765119 -752682 -744149 
3723.247 -748449 -767864 -798061 -828818 -849719 -853753 -840525 -815590 
3727.104 -786684 -759199 -732571 -702502 -662738 -608477 -539120 -459789 
3730.962 -380808 -317506 -283832 -288071 -329856 -402756 -496660 -600867 
3734.819 -703329 -789363 -844560 -860565 -839401 -792670 -733861 -676302 
3738.677 -628528 -594713 -573966 -561556 -550405 -534520 -511453 -484215 
3742.534 -461609 -457836 -488187 -557883 -652978 -742594 -802129 -824188 
3746.391 -815160 -785592 -744149 -697077 -647684 -599477 -555765 -522011 
3750.249 -504371 -507482 -532468 -575124 -627535 -680999 -729065 -768129 
3754.106 -796871 -814697 -821476 -817078 -802129 -778481 -750102 -722615 
3757.964 -701047 -688344 -683481 -681363 -675144 -659330 -631936 -594415 
3761.821 -550603 -505000 -462139 -426126 -401763 -394016 -406099 -437678 
3765.678 -483289 -533296 -577043 -606492 -617146 -610165 -591768 -573370 
3769.536 -567513 -582933 -619429 -668593 -718116 -756850 -779904 -786320 
3773.393 -780367 -767666 -754336 -744413 -738823 -736408 -734391 -730818 
3777.251 -725658 -720795 -719604 -725294 -737996 -754998 -770874 -780995 
3781.108 -782748 -776232 -763961 -748912 -734887 -724566 -719902 -721424 
3784.966 -728172 -739022 -752980 -769584 -789065 -811489 -836358 -862219 
3788.823 -886622 -906296 -918696 -922729 -918762 -909140 -897170 -886060 
3792.680 -877231 -870023 -861822 -848958 -828091 -797334 -758471 -716561 
3796.538 -678551 -649934 -632465 -624491 -622473 -623300 -625848 -631572 
3800.395 -643880 -665947 -698103 -734754 -768427 -793034 -805966 -807421 
3804.253 -797234 -775042 -740212 -693603 -640207 -590676 -558611 -553052 
3808.110 -575322 -618602 -672001 -724269 -764987 -787246 -787511 -766376 
3811.968 -728900 -681826 -631506 -582701 -538458 -500201 -470314 -451481 
3815.825 -446715 -456247 -476868 -503180 -529887 -553052 -570259 -580286 
3819.682 -582139 -576348 -564833 -550702 -538458 -531277 -530648 -537002 
3823.540 -550206 -569234 -592165 -616054 -636237 -648015 -648942 -639579 
3827.397 -624293 -608510 -597492 -593786 -597591 -606558 -617146 -625385 
3831.255 -627965 -623367 -612448 -597558 -581312 -566421 -554475 -546301 
3835.112 -542231 -541768 -544415 -549279 -555567 -563112 -571748 -581642 
3838.969 -591801 -600569 -605764 -605830 -600569 -591702 -583032 -579161 
3842.827 -584687 -602555 -632333 -670380 -711037 -748846 -779672 -801005 
3846.684 -811952 -811853 -799748 -775273 -737963 -688906 -631307 -570425 
3850.542 -512645 -465548 -436156 -428476 -440161 -460385 -475114 -477795 
3854.399 -474915 -477795 -495137 -528100 -573370 -622639 -666939 -697375 
3858.257 -708027 -697309 -667799 -625219 -577407 -533064 -499936 -482594 
3862.114 -482230 -495832 -517609 -540278 -558247 -568770 -572774 -573370 
3865.971 -574660 -579293 -588194 -601330 -617444 -635046 -651787 -665219 
3869.829 -673953 -677327 -676401 -671836 -664226 -653739 -640505 -626080 
3873.686 -612812 -604010 -601992 -606856 -617245 -630480 -644144 -656849 
3877.544 -667766 -676765 -683679 -688807 -692148 -693603 -693405 -691586 
3881.401 -688542 -684043 -677691 -668229 -654897 -637428 -616881 -596665 
3885.259 -582006 -577341 -584488 -601165 -623300 -647089 -669917 -690957 
3889.116 -709515 -725426 -738261 -747192 -751326 -751029 -747423 -742230 
3892.973 -736971 -732042 -726783 -719704 -709482 -695721 -679808 -664226 
3896.831 -653243 -651059 -659892 -679378 -705082 -729826 -746464 -750962 
3900.688 -744115 -730884 -717289 -708291 -705479 -706836 -707960 -703825 
3904.546 -691883 -672299 -647916 -622308 -599477 -582238 -573006 -573668 
3908.403 -584587 -604838 -631307 -659495 -683481 -698367 -702337 -697077 
3912.260 -688013 -682554 -687351 -706174 -737897 -776861 -814432 -839864 
3916.118 -845849 -829480 -795151 -752120 -710210 -677724 -658139 -650761 
3919.975 -651853 -657047 -662175 -664557 -663929 -661712 -660918 -665219 
3923.833 -677625 -699227 -727576 -757445 -782252 -796705 -797962 -785824 
3927.690 -763598 -736243 -709218 -687914 -675872 -674284 -682290 -697540 
3931.548 -716760 -736541 -753245 -763995 -766277 -759099 -743024 -720266 
3935.405 -694596 -670181 -650497 -636469 -626874 -618271 -607021 -590742 
3939.262 -569995 -548750 -532733 -527504 -536373 -558843 -589584 -620455 
3943.120 -643317 -653342 -650397 -637362 -618701 -598485 -578995 -561987 
3946.977 -548551 -539914 -537929 -544316 -559902 -583396 -611554 -640042 
3950.835 -663829 -679643 -685532 -682323 -671736 -656551 -639413 -622076 
3954.692 -605400 -589584 -574561 -560729 -549213 -542396 -542793 -552258 
3958.550 -571649 -599411 -631406 -662109 -685631 -697110 -694695 -679974 
3962.407 -657378 -632796 -611356 -595441 -584786 -577341 -570458 -561921 
3966.264 -551596 -540146 -529622 -520819 -514631 -510957 -510063 -513009 
3970.122 -522176 -539451 -565693 -598749 -633888 -663829 -682389 -685234 
3973.979 -672828 -649206 -620918 -593985 -571815 -554442 -540047 -526445 
3977.837 -513671 -503908 -501293 -508508 -525386 -547724 -567480 -577241 
3981.694 -572311 -554078 -529821 -510858 -507681 -526147 -565197 -617312 
3985.552 -670347 -712095 -734655 -735482 -717752 -688641 -656551 -628363 
3989.409 -607782 -595738 -590577 -589782 -590841 -591338 -590312 -586970 
3993.266 -581179 -573370 -564502 -556196 -550504 -549478 -554276 -564965 
3997.124 -579988 -596533 -610727 -619528 -620819 -613937 -600801 -584951 
##END=
