##TITLE=lb_0 31 12:36:05 2026 (GMT+02:00)
##JCAMP-DX=5.01  $$ Nicolet v. 970
##DATATYPE=INFRARED SPECTRUM
##ORIGIN=Vojna akademija
##OWNER=Nicolet
##LONGDATE=2026/08/31
##TIME=12:37:05
##SPECTROMETER/DATA SYSTEM=Nicolet iS20
##DATA PROCESSING=
Ratio against background
%Transmittance->Absorbance
Truncated
ElementMultiply or ElementDivide
##COMMENTS=
Number of sample scans: 8
Collection length: 11,90 sec
Sample gain: 8,0
Background collected on: Mon Aug 31 12:32:58 2026 (GMT+02:00);
Number of background scans: 8
Background gain: 8,0
Sample spacing:  1,000
Number of scan points: 12415
Resolution points: 8286
Number of FFT points: 65536
Apodization: N-B strong;
Phase correction: Mertz;
Laser frequency: 15798,00 cm-1
Number of rejected sample scans: 0
Number of rejected background scans: 0
Bench serial number: BER2010005;
##RESOLUTION= 4,000
##XUNITS=1/CM
##YUNITS=ABSORBANCE
##FIRSTX=400.156891
##LASTX=4000.123047
##FIRSTY=0.020392
##MAXX=4000.123047
##MINX=400.156891
##MAXY=0.273092
##MINY=-0.003186
##XFACTOR=1.000000
##YFACTOR=1.000000E-009
##NPOINTS=7468
##DELTAX=0.482117
##ZPD=6100
##XYDATA=(X++(Y..Y))
400.157 20391954 15703827 12380010 10427888 9617971 9562452 9841137 10050546 
404.014 9901233 9246713 8084979 6547320 4842265 3177720 1683452 407408 
407.871 -656319 -1516016 -2148950 -2505413 -2545964 -2282724 -1803183 
411.246 -1247096 -779242 -524658 -539683 -797896 -1214320 -1683190 -2125870 
415.103 -2513550 -2839660 -3088778 -3186018 -2947190 -2086401 -317440 
418.477 2402755 5650063 8675480 10853764 11997255 12238482 11821564 10943834 
422.334 9723915 8210943 6427117 4436400 2383931 490660 -979099 -1820968 
426.191 -1935216 -1359843 -263534 1077662 2345386 3281636 3732606 3717066 
430.048 3407384 3089379 3050004 3479055 4398543 5655972 6978967 8065164 
433.905 8696336 8770172 8339815 7590421 6804486 6247580 6067144 6260926 
437.762 6697302 7196299 7589174 7774967 7713848 7411077 6888066 6162007 
441.619 5238649 4134133 2908615 1680558 609796 -138842 -462735 -344159 
445.476 148598 891623 1734780 2543813 3238705 3797813 4246543 4620548 
449.333 4937297 5181205 5309550 5272488 5044920 4647608 4159824 3692972 
453.190 3363572 3256531 3405647 3801156 4405070 5166149 6015772 6876957 
457.047 7665485 8295772 8709893 8885648 8827618 8545664 8034853 7278977 
460.904 6275481 5065838 3758407 2515151 1525283 920211 732681 885016 1233773 
465.243 1617530 1912793 2078993 2165330 2285226 2555311 3048502 3753461 
469.100 4589037 5430820 6159756 6686366 6963580 6990214 6806641 6485095 
472.957 6104206 5740673 5444710 5229192 5073883 4932571 4746617 4462411 
476.813 4057169 3552977 3024011 2565777 2265907 2165896 2247722 2440373 
480.670 2652011 2808023 2874426 2873859 2872558 2954716 3183928 3585984 
484.527 4139920 4793282 5475847 6118185 6665572 7067261 7279280 7268397 
488.384 7019475 6551996 5925139 5230197 4554279 3956478 3444454 2981839 
492.241 2513551 2008717 1489939 1035545 749542 714227 962018 1447816 2057653 
496.580 2627576 3005861 3088311 2854047 2358778 1717481 1068660 537899 
500.437 234586 219767 494508 989282 1584540 2137360 2517650 2647477 2498455 
504.776 2091478 1478669 735070 -54203 -807553 -1442444 -1889329 -2093622 
508.633 -2016388 -1639686 -968454 -38930 1081681 2288790 3452135 4451832 
512.490 5189454 5617873 5740874 5600889 5258603 4780116 4233895 3681176 
516.347 3181525 2791882 2556611 2505820 2643510 2942340 3339831 3745473 
520.204 4060948 4191605 4076501 3703832 3118146 2412284 1719710 1190413 
524.061 945979 1059659 1523654 2247322 3070926 3820175 4362228 4630997 
527.918 4639168 4451699 4159824 3847586 3582442 3403710 3314689 3280802 
531.775 3234465 3095286 2782879 2252884 1519797 673772 -132880 -713518 
535.632 -893599 -574098 248211 1474812 2946610 4468838 5865992 7015906 
539.489 7844292 8324142 8455515 8252207 7741269 6973041 6032806 5026048 
543.346 4072086 3272456 2685249 2324798 2165896 2167462 2288990 2507519 
547.203 2811791 3185931 3593835 3972862 4243130 4340240 4238078 3970522 
551.059 3617356 3284107 3058079 2979971 3041328 3196512 3388215 3572687 
554.916 3735547 3886533 4042855 4209873 4370830 4490498 4531679 4469106 
558.773 4302959 4056467 3768233 3477619 3218676 3019640 2903045 2890503 
562.630 2998354 3231261 3573055 3982526 4400618 4756265 4988306 5059636 
566.487 4961527 4712986 4352221 3930130 3497894 3111471 2823831 2675681 
570.344 2689617 2857616 3141374 3475515 3790326 4032956 4183075 4258957 
574.201 4305101 4367583 4464754 4572160 4624969 4549491 4293021 3856880 
578.058 3297828 2718090 2228538 1919515 1841113 1985882 2296518 2685483 
581.915 3072394 3397599 3636868 3795039 3895258 3966442 4032320 4106302 
585.772 4188193 4264946 4314404 4314873 4250223 4118311 3932370 3720475 
589.629 3516265 3347477 3229091 3156860 3111371 3062683 2984842 2863252 
593.486 2697018 2496788 2280862 2070903 1886402 1746556 1665092 1646698 
597.343 1686146 1766916 1866702 1961252 2034449 2082755 2116849 2153909 
601.200 2210021 2291155 2390994 2495789 2593709 2682682 2772174 2877428 
605.057 3007128 3153188 3288013 3370117 3359765 3239272 3022143 2754568 
608.913 2497022 2311541 2239761 2295218 2466364 2727226 3046433 3391688 
612.770 3733007 4034394 4251093 4338834 4259927 4002657 3590795 3087544 
616.627 2576643 2136527 1821847 1644736 1580716 1583542 1610114 1633960 
620.484 1651588 1676068 1725465 1809869 1926471 2060549 2193136 2309708 
624.341 2402822 2472695 2522116 2553078 2564844 2556178 2529648 2492689 
628.198 2458566 2440606 2447037 2476794 2518917 2556444 2571643 2554011 
632.055 2504587 2438940 2384164 2376035 2450836 2632676 2924593 3298897 
635.912 3699956 4045029 4249220 4245606 4002958 3540984 2927329 2262743 
639.769 1645368 1153468 823299 646528 585110 592144 634980 700853 797074 
644.108 938275 1132040 1370297 1630900 1885770 2114785 2310275 2477394 
647.965 2624809 2756068 2861918 2923926 2921858 2848277 2715356 2557311 
651.822 2417849 2340955 2356013 2467363 2656045 2885466 3114675 3303738 
655.679 3423848 3458314 3403310 3266313 3064385 2823630 2573776 2345852 
659.536 2165930 2049297 1997932 2001294 2042406 2100667 2159703 2209355 
663.393 2245157 2267606 2281029 2291954 2310774 2353414 2443805 2610742 
667.250 2875260 3221380 3577498 3838393 3938355 3875667 3685720 3408452 
671.107 3077933 2724458 2376868 2069238 1834225 1695094 1660535 1720276 
674.963 1849099 2009283 2162600 2275533 2325898 2307576 2228704 2107992 
678.820 1966777 1827271 1709464 1628539 1597975 1627142 1720375 1874289 
682.677 2075564 2298616 2507119 2665913 2746965 2742264 2667913 2562277 
686.534 2476294 2458000 2543346 2742897 3040561 3397399 3769102 4114464 
690.391 4406610 4636321 4809464 4941285 5049982 5153643 5267055 5400860 
694.248 5563165 5758233 5985167 6236286 6497405 6749259 6970617 7145535 
698.105 7266712 7338248 7374577 7398135 7430829 7488908 7580407 7703898 
701.962 7850669 8008121 8162929 8302797 8418184 8505013 8566177 8615146 
705.819 8674026 8775514 8952817 9229790 9613195 10086832 10614425 11147861 
709.676 11646931 12089471 12482536 12860088 13274280 13776998 14399339 
713.051 15146105 15993116 16900000 17822864 18734548 19631234 20530988 
716.425 21462862 22453506 23513986 24634010 25781750 26910850 27973062 
719.800 28920706 29717226 30337870 30770574 31015094 31083106 30993564 
723.175 30766626 30419602 29964632 29408334 28758922 28030668 27245982 
726.550 26435702 25631466 24858886 24136402 23474010 22877652 22354424 
729.925 21911654 21556448 21289530 21101934 20973150 20876352 20785344 
733.300 20680248 20553568 20408068 20251714 20091044 19927624 19758372 
736.674 19580276 19394978 19210970 19040058 18892156 18768106 18657720 
740.049 18542140 18402808 18229966 18027938 17813786 17610432 17436388 
743.424 17296514 17180848 17066212 16927696 16743112 16503364 16213391 
746.799 15891373 15563686 15262328 15019896 14861047 14798752 14825973 
750.174 14915945 15020926 15084866 15057799 14906618 14627887 14248899 
753.548 13821566 13402408 13040433 12764876 12579733 12468999 12404249 
756.923 12356997 12302150 12224475 12118704 11987888 11842777 11699484 
760.298 11579480 11503499 11488120 11541130 11657822 11821326 12004919 
763.673 12179560 12315409 12389624 12388702 12307433 12150664 11932712 
767.048 11677325 11412870 11169415 10970271 10824447 10724755 10651097 
770.423 10581118 10500253 10411666 10336941 10309830 10359134 10495331 
773.797 10700099 10930107 11124576 11224120 11192534 11024135 10747680 
777.172 10412481 10080524 9804431 9618174 9533865 9541079 9612246 9710429 
781.029 9801381 9856693 9860863 9812328 9720560 9600695 9464879 9317967 
784.886 9154930 8964791 8738662 8478591 8202603 7943224 7736075 7610619 
788.743 7579497 7633853 7747678 7887581 8023174 8131869 8201961 8226577 
792.600 8199462 8112997 7961818 7750646 7500201 7250641 7052309 6949607 
796.457 6970415 7113469 7350650 7634123 7915587 8158945 8347854 8485551 
800.314 8586047 8664325 8727843 8779266 8819198 8852912 8893494 8958026 
804.171 9059884 9202376 9373387 9548091 9696300 9795959 9839916 9841441 
808.028 9827375 9833849 9893064 10023759 10228507 10493397 10792040 11091365 
811.885 11362528 11583087 11741762 11838521 11881357 11882549 11851937 
815.259 11795654 11714665 11608201 11477778 11329844 11174651 11022912 
818.634 10878802 10736948 10582679 10400128 10179830 9928048 9666925 9430914 
822.491 9252637 9149516 9117437 9130059 9148466 9132156 9055452 8911452 
826.348 8712461 8480314 8240320 8012340 7808903 7639518 7513045 7439357 
830.205 7429076 7486143 7603470 7758640 7919164 8047139 8111444 8099123 
834.062 8018180 7897197 7774191 7689632 7672634 7733309 7862309 8033941 
837.919 8212935 8363189 8458556 8485111 8444838 8351467 8227557 8096760 
841.776 7977139 7880933 7812883 7772572 7756853 7760563 7775641 7789674 
845.633 7787381 7751523 7668790 7536509 7367567 7189259 7037289 6948597 
849.490 6946746 7037289 7205429 7423582 7658099 7879078 8068134 8218067 
853.347 8330425 8410042 8461090 8486159 8485585 8461393 8415785 8352482 
857.204 8275239 8187510 8093047 7999887 7919164 7866729 7856742 7895611 
861.060 7977443 8083426 8187240 8262541 8295131 8287363 8257712 8230426 
864.917 8225868 8249675 8290807 8325224 8328465 8286992 8204122 8099831 
868.774 8001338 7933876 7910357 7928004 7971436 8020676 8057265 8069349 
872.631 8053485 8011361 7946868 7864232 7769030 7668385 7573293 7496661 
876.488 7450042 7440604 7468378 7525687 7599559 7675669 7743091 7796286 
880.345 7836702 7869866 7905026 7950512 8013252 8096118 8197977 8312862 
884.202 8431325 8543366 8640023 8716180 8772403 8814161 8849091 8883957 
888.059 8922039 8962356 9001493 9035525 9062726 9083026 9096222 9099977 
891.916 9087796 9051054 8983125 8883686 8762497 8637555 8530931 8459467 
895.773 8429129 8431223 8446326 8448893 8415751 8334445 8203515 8032187 
899.630 7834812 7628154 7426784 7242252 7083831 6957082 6864502 6804756 
903.487 6772648 6761609 6765109 6780490 6808121 6850532 6908702 6977284 
907.344 7043923 7092183 7106026 7079183 7019610 6950584 6901397 6900117 
911.201 6961189 7079554 7230595 7379397 7492683 7548714 7546320 7503336 
915.058 7451996 7424997 7448322 7533475 7673950 7848274 8026279 8177819 
918.914 8276623 8308370 8270713 8174342 8038093 7885151 7736851 7608259 
922.771 7507213 7436188 7395304 7386339 7414178 7484188 7600133 7757224 
926.628 7940828 8124307 8277029 8371330 8390989 8338869 8237484 8124510 
930.485 8039240 8016593 8073434 8203750 8380922 8565095 8714794 8796375 
934.342 8795360 8718614 8593313 8456360 8348327 8300872 8329209 8431663 
938.199 8591421 8783594 8978288 9149821 9277651 9347691 9354157 9298570 
942.056 9190362 9045979 8888692 8743902 8632046 8564994 8541575 8549415 
945.913 8568812 8581756 8576585 8551409 8512008 8468556 8429129 8397408 
949.770 8373120 8355656 8346705 8352278 8379335 8431528 8504338 8584696 
953.627 8653813 8694139 8698095 8671525 8633770 8607847 8613558 8658275 
957.484 8734504 8824170 8906785 8968783 9007446 9030992 9052373 9082654 
961.341 9124746 9173339 9217572 9248507 9262689 9263942 9260625 9261200 
965.198 9269324 9282153 9291902 9290683 9273454 9240925 9198721 9154761 
969.055 9115948 9085631 9062794 9043915 9023752 8996182 8955726 8895489 
972.912 8808818 8690218 8539074 8361669 8171910 7990774 7840717 7737998 
976.768 7687710 7679278 7688620 7681807 7628930 7510921 7328678 7102153 
980.625 6867228 6665202 6527206 6468851 6483313 6546546 6624962 6688553 
984.482 6720419 6719645 6699690 6680107 6678223 6700431 6740812 6784427 
988.339 6814954 6820643 6800448 6762855 6723650 6697705 6694879 6716280 
992.196 6755081 6797755 6828855 6835957 6810310 6751177 6665067 6566696 
996.053 6476519 6417197 6409530 6465455 6584088 6749730 6936780 7112560 
999.910 7245217 7312773 7304585 7223621 7082450 6902373 6706522 6519099 
1003.767 6363430 6258640 6216320 6238202 6313839 6422577 6537364 6634584 
1007.624 6697503 6722135 6715439 6691413 6662443 6634181 6603801 6563332 
1011.481 6504099 6423384 6325640 6221194 6121546 6033713 5959603 5896421 
1015.338 5841644 5796780 5769749 5772335 5817398 5913249 6061264 6256119 
1019.195 6487955 6742966 7004625 7253707 7464974 7610181 7663461 7606876 
1023.052 7440839 7187271 6889210 6596501 6356471 6200523 6137642 6157336 
1026.909 6236622 6350788 6478538 6604642 6718703 6808593 6860496 6860631 
1030.766 6800347 6682429 6524380 6354991 6204489 6098326 6049437 6057501 
1034.624 6113884 6207951 6331389 6479277 6646326 6822763 6991358 7131826 
1038.481 7226181 7267251 7263511 7236861 7214491 7215535 7244644 7288681 
1042.339 7322882 7321197 7268700 7167834 7037424 6903450 6790721 6713756 
1046.196 6673916 6661702 6663553 6669071 6672738 6674824 6676608 6677113 
1050.054 6671224 6651474 6610462 6547455 6468313 6385622 6314982 6270607 
1053.911 6261094 6287516 6343929 6420694 6507731 6598082 6690067 6787591 
1057.768 6899781 7036683 7206776 7412425 7646667 7890280 8114246 8284492 
1061.626 8366432 8335626 8183154 7919603 7572248 7183903 6804991 6482943 
1065.483 6257732 6152900 6170241 6289096 6470398 6663183 6809838 6862314 
1069.341 6788466 6580353 6256858 5861257 5454071 5095976 4843839 4735763 
1073.198 4784605 4977447 5280973 5650634 6037476 6402300 6717794 6970819 
1077.056 7161973 7300171 7396753 7459884 7492785 7492683 7454221 7373499 
1080.913 7251618 7096225 6922202 6746196 6584491 6447597 6338113 6250337 
1084.770 6172157 6090093 5993297 5878956 5754539 5637945 5551888 5518094 
1088.628 5551419 5652749 5809271 5996723 6187214 6353848 6476923 6546513 
1092.485 6560910 6524245 6443293 6327018 6186878 6038786 5905758 5812999 
1096.343 5786203 5842517 5984226 6196322 6447933 6700565 6911900 7048065 
1100.200 7088916 7029039 6877294 6653661 6385084 6100207 5828178 5594780 
1104.057 5416661 5301064 5243545 5231237 5245389 5268329 5286809 5294087 
1107.915 5288821 5272488 5246295 5210077 5163064 5106938 5047200 4995244 
1111.772 4964376 4965583 5004193 5077001 5173996 5281543 5388447 5487860 
1115.630 5578670 5663088 5743124 5817532 5881072 5925475 5943546 5931286 
1119.487 5890039 5825055 5744769 5658153 5574207 5502121 5452393 5434946 
1123.345 5458366 5526450 5636133 5775390 5925542 6065867 6176089 6243715 
1127.202 6265396 6247446 6203179 6150245 6106424 6085389 6096142 6139693 
1131.059 6210606 6297130 6385555 6463975 6525625 6572078 6612212 6659145 
1134.917 6723481 6809333 6910520 7013886 7101984 7161535 7188282 7188012 
1138.774 7173224 7158065 7152642 7160187 7178075 7202397 7231909 7269475 
1142.632 7320793 7389811 7474109 7564122 7645149 7702886 7730543 7731791 
1146.489 7719345 7708620 7710340 7725653 7745384 7755200 7743833 7710880 
1150.347 7670071 7645183 7661303 7736514 7873241 8056962 8258725 8446832 
1154.204 8592638 8678320 8700055 8664866 8586825 8482071 8367614 8257610 
1158.061 8163064 8092877 8051223 8038430 8049704 8076641 8108271 8134435 
1161.919 8148784 8149964 8141963 8131734 8126839 8132544 8149222 8173025 
1165.776 8196829 8212631 8214150 8198584 8167589 8125860 8079105 8032052 
1169.634 7986049 7938061 7881305 7807891 7710711 7585903 7435345 7266139 
1173.491 7090432 6922202 6776283 6665168 6596366 6572078 6588427 6636704 
1177.349 6704300 6778740 6849758 6910520 6958866 6995567 7022135 7039074 
1181.206 7044698 7035471 7008834 6964927 6908735 6848917 6797251 6762956 
1185.063 6751244 6761105 6787019 6820609 6854639 6884598 6909308 6929373 
1188.921 6944928 6954422 6954860 6943480 6920990 6891735 6864939 6851744 
1192.778 6860328 6893755 6947486 7010484 7067497 7103230 7106666 7072717 
1196.636 7003615 6907793 6798159 6689461 6595727 6528719 6494782 6494378 
1200.493 6522833 6571506 6630850 6693600 6756898 6822527 6894899 6978193 
1204.350 7072650 7173695 7271396 7353481 7409662 7434199 7428099 7398270 
1208.208 7355031 7308528 7265297 7228000 7195086 7162849 7126875 7084942 
1212.065 7037963 6989944 6946880 6916782 6905605 6916984 6949237 6995601 
1215.923 7045338 7085245 7104342 7095652 7059987 7004726 6943581 6892610 
1219.780 6865612 6872783 6917725 6997722 7104813 7227091 7351762 7465210 
1223.638 7556536 7617700 7645554 7641474 7611395 7563886 7507685 7449974 
1227.495 7395338 7346235 7304046 7270519 7248990 7243768 7258457 7294240 
1231.352 7348797 7416807 7490560 7562234 7626636 7681302 7726260 7763464 
1235.210 7794903 7821082 7841830 7856101 7862782 7860892 7851074 7833631 
1239.067 7810590 7784446 7758843 7738470 7728115 7730948 7747813 7776485 
1242.925 7811939 7848240 7881541 7910795 7939242 7972549 8016322 8074041 
1246.782 8144698 8223437 8302966 8376464 8438488 8486869 8521942 8545461 
1250.640 8559383 8565365 8565196 8561749 8557964 8557694 8563608 8576315 
1254.497 8593854 8612882 8629680 8642862 8653678 8666387 8685249 8714050 
1258.354 8752760 8798201 8844052 8883720 8912298 8927416 8930393 8924271 
1262.212 8914056 8904655 8901340 8909491 8933301 8976122 9038231 9117573 
1266.069 9208975 9305273 9400000 9487061 9561673 9621223 9663401 9687118 
1269.927 9691828 9679427 9653881 9621800 9591244 9568753 9557981 9558523 
1273.784 9567398 9580201 9594056 9608758 9626474 9650155 9680443 9714969 
1277.641 9748414 9773999 9787147 9787757 9781183 9776236 9782775 9807448 
1281.499 9852864 9916488 9992735 10075369 10159004 10240042 10316073 
1284.874 10385128 10445062 10494619 10533826 10566009 10597041 10634832 
1288.249 10685768 10753080 10835385 10927898 11024442 11119918 11212798 
1291.625 11304167 11396441 11490570 11584210 11670960 11742239 11789526 
1295.000 11808218 11799944 11772844 11739447 11715108 11713712 11743804 
1298.375 11807911 11901993 12015990 12135842 12247854 12340533 12407079 
1301.750 12447244 12466305 12473704 12479638 12492085 12515752 12550776 
1305.126 12593615 12639494 12682648 12717653 12739831 12744470 12727343 
1308.501 12685617 12619027 12531609 12431014 12328874 12236983 12164805 
1311.876 12116795 12090697 12078194 12066611 12044638 12004578 11944905 
1315.251 11870017 11788436 11709015 11638763 11580330 11531501 11486487 
1318.627 11437771 11379943 11311819 11236973 11162072 11094764 11040653 
1322.002 11001569 10975300 10957528 10944310 10933539 10927966 10933504 
1325.377 10958140 11008264 11086334 11189304 11309234 11434913 11554571 
1328.752 11660784 11750953 11828782 11902266 11981757 12076116 12191248 
1332.128 12328193 12483832 12652354 12826573 13000214 13168151 13326722 
1335.503 13474518 13610261 13733974 13846262 13947871 14040022 14124527 
1338.878 14203740 14279990 14356253 14434413 14514814 14596600 14677169 
1342.253 14753570 14822613 14882066 14931308 14972702 15011116 15054232 
1345.629 15112105 15194107 15308112 15458300 15642853 15853362 16074942 
1349.004 16289754 16478688 16628386 16733162 16796320 16829214 16847088 
1352.379 16865518 16895762 16942648 17005046 17078412 17158650 17246038 
1355.754 17347306 17474882 17643318 17864984 18147804 18493560 18899768 
1359.130 19363104 19885964 20479300 21164828 21968880 22913698 23998904 
1362.505 25190750 26422144 27615762 28710424 29672806 30497294 31190892 
1365.880 31763062 32225200 32595676 32909020 33218448 33597500 34120696 
1369.255 34842728 35793624 36976912 38385216 40016440 41886952 44027296 
1372.630 46460720 49170824 52057268 54923844 57531304 59662764 61196768 
1376.006 62104148 62397184 62088016 61171936 59646268 57546928 54976904 
1379.381 52103256 49102928 46133208 43292956 40621644 38127936 35808772 
1382.756 33662408 31687352 29870778 28180408 26564850 24965666 23333296 
1386.131 21650368 19947294 18295520 16777412 15448412 14319301 13367109 
1389.507 12557666 11861267 11258259 10735317 10279905 9875811 9505077 
1392.882 9151445 8807432 8477340 8175861 7918691 7711790 7547365 7410976 
1396.739 7290567 7183296 7096090 7039646 7019846 7032204 7061873 7092857 
1400.597 7114547 7125460 7129771 7131859 7131994 7126403 7109158 7079385 
1404.454 7045809 7027187 7042542 7103500 7206002 7334104 7465985 7583004 
1408.312 7675299 7741742 7787178 7818585 7840784 7855763 7865784 7876986 
1412.169 7899660 7946463 8025571 8135988 8265816 8396631 8511873 8602811 
1416.026 8674838 8746641 8844120 8988267 9184237 9412460 9637823 9830222 
1419.884 9985614 10121560 10262941 10426328 10618533 10841500 11098231 
1423.259 11395726 11743804 12146438 12596310 13073520 13556314 14031022 
1426.634 14501693 14992251 15544455 16206272 17015798 17984596 19089460 
1430.010 20280946 21504394 22721804 23916100 25086444 26238798 27378194 
1433.385 28511600 29656452 30845092 32131750 33581284 35236572 37064660 
1436.760 38941468 40708716 42265432 43612216 44819412 45975788 47162436 
1440.135 48433600 49814760 51301668 52870320 54487028 56117468 57737780 
1443.511 59331568 60888184 62403648 63879744 65328940 66776112 68254944 
1446.886 69794368 71403112 73062320 74732152 76378608 77998336 79620096 
1450.261 81293888 83065768 84955224 86938088 88950592 90916696 92765768 
1453.636 94466432 96024912 97467104 98814664 100056608 101128312 101921096 
1457.012 102364688 102511216 102496024 102439144 102373784 102278968 
1459.905 102122256 101888504 101578712 101199744 100748480 100199600 
1462.798 99496984 98562856 97316008 95711224 93769688 91559080 89143672 
1466.173 86544472 83732200 80676664 77379432 73893672 70291456 66650196 
1469.548 63010328 59332020 55512244 51414668 46968536 42294908 37764788 
1472.923 33838892 30779252 28538916 26871088 25498940 24240692 23015390 
1476.299 21827782 20720282 19731672 18868484 18106106 17406520 16735606 
1479.674 16073361 15416861 14775063 14162968 13593919 13076319 12613603 
1483.049 12207878 11860517 11570054 11329640 11124372 10932179 10731106 
1486.424 10507755 10263281 10013010 9779048 9576136 9401828 9234021 9045607 
1490.282 8826671 8589596 8360250 8158912 7992866 7855831 7734928 7617835 
1494.139 7496054 7368848 7242252 7125460 7023785 6931696 6835183 6718736 
1497.997 6576653 6416121 6251715 6097015 5959972 5841778 5739330 5650097 
1501.854 5574441 5515309 5476082 5457057 5452393 5447629 5420016 5341382 
1505.712 5188716 4969973 4745947 4601125 4560072 4573834 4581971 4556222 
1509.569 4493846 4407513 4313567 4226434 4152498 4090883 4035832 3981791 
1513.426 3927823 3878175 3839931 3818705 3814159 3816666 3808108 3772478 
1517.284 3706773 3622334 3536007 3459884 3396631 3339731 3276428 3195010 
1521.141 3096053 2996852 2921257 2880063 2866354 2862252 2849845 2815493 
1524.999 2753834 2669547 2577109 2493489 2432576 2399057 2388962 2394626 
1528.856 2409585 2430743 2456900 2488291 2524716 2563777 2600908 2627509 
1532.714 2631776 2603442 2540080 2451169 2352248 2257647 2177452 2118613 
1536.571 2089680 2101100 2164898 2289623 2472262 2684282 2863919 2945142 
1540.428 2908348 2799652 2683182 2598442 2546512 2507219 2453535 2366007 
1544.286 2240594 2089847 1937021 1804845 1706271 1642574 1608850 1597344 
1548.143 1600669 1612242 1625612 1635224 1636288 1626444 1605491 1574763 
1552.001 1535957 1491203 1444060 1399448 1364879 1348160 1354143 1384556 
1555.858 1438142 1512382 1604194 1709232 1815193 1893790 1908999 1853491 
1559.715 1765652 1683552 1618628 1567281 1524618 1487778 1456527 1431427 
1563.573 1412612 1398650 1386817 1374219 1361123 1352282 1356170 1382163 
1567.430 1438807 1528675 1645667 1769079 1870362 1927702 1940250 1925839 
1571.288 1907435 1901544 1913924 1942613 1980923 2020235 2050928 2062913 
1575.145 2048764 2005521 1938985 1862975 1793466 1739404 1702213 1678563 
1579.003 1663428 1651189 1637352 1619393 1597743 1577623 1565818 1570307 
1582.860 1595647 1641244 1700483 1763656 1819585 1859947 1881777 1886369 
1586.717 1877850 1860845 1838384 1812464 1784217 1755538 1728825 1706670 
1590.575 1690338 1679361 1671810 1665391 1659903 1658173 1665856 1689572 
1594.432 1734314 1800653 1883307 1972202 2055489 2122975 2167928 2188075 
1598.290 2184578 2162100 2127137 2090313 2064477 2062913 2097105 2171691 
1602.147 2283261 2418015 2555945 2675448 2759236 2799552 2797518 2762204 
1606.005 2704820 2637610 2570943 2512485 2466897 2435308 2414983 2398957 
1609.862 2378834 2346485 2297350 2233167 2162200 2096672 2048065 2024562 
1613.719 2028424 2055189 2092710 2122110 2121777 2072900 1973900 1842777 
1617.577 1708267 1591989 1504369 1445323 1410883 1395260 1391437 1390905 
1621.434 1381598 1350354 1288371 1198719 1099220 1016216 970917 969191 
1625.292 1003463 1057002 1111079 1146956 1152804 1126891 1078392 1021696 
1629.149 969988 930405 902348 880899 861278 840230 817357 794252 772876 
1633.489 755051 741775 732813 727835 727138 731021 739120 750073 762918 
1637.828 778021 797174 822801 856265 896537 938341 973740 994263 993732 
1642.168 971748 934622 894047 862606 852712 872035 920577 986459 1046174 
1646.507 1072912 1051588 991905 918850 854571 808294 780477 768129 769258 
1650.847 784825 819116 877446 957136 1033021 1059526 1013027 917887 810717 
1655.187 712933 631164 566464 519023 489234 478089 486282 512455 552231 
1659.526 598083 639427 663518 659370 619982 548416 458751 374178 316910 
1663.866 297612 315384 362372 430093 511824 603923 703906 807829 909188 
1668.205 997219 1058662 1083541 1071749 1033519 983537 934257 891557 855634 
1672.545 825357 798900 776693 760262 752130 753856 764611 781639 802086 
1676.885 825291 852081 883755 920842 962018 1004592 1045742 1084770 1123569 
1681.224 1166425 1216794 1272719 1321306 1333702 1272918 1127256 938209 
1685.082 771482 663087 613711 606577 622902 646395 666206 675830 674503 
1689.421 666273 657213 652700 655355 665675 683595 709282 743899 788908 
1693.761 844213 905203 961021 995326 994164 957601 902082 846969 801755 
1698.100 764611 723587 662390 568786 449861 335379 257262 224474 226596 
1702.440 246719 272911 297977 320292 341646 365390 392749 421039 443825 
1706.780 455467 453609 441171 423427 407010 397392 396994 405915 422133 
1711.119 443858 470592 504228 547454 603159 672711 754354 844047 936283 
1715.459 1024984 1102741 1159282 1179548 1149050 1066402 948569 823199 
1719.316 715223 637668 592243 573663 573099 581228 588461 589290 582124 
1723.656 569848 557075 546326 537202 526752 512388 493712 474904 463693 
1727.995 469133 497726 550340 620812 697434 767897 824262 864764 892188 
1732.335 909121 914367 901352 862772 801157 732847 676162 640787 626685 
1736.675 627548 635345 641716 639792 626054 604122 583385 575654 588826 
1741.014 623533 674602 734207 793688 846703 890428 924760 952653 977061 
1745.354 1000474 1022925 1042122 1053248 1050624 1028205 982042 912840 
1749.211 826950 735801 654094 595893 569118 573365 600571 640090 681637 
1753.551 718343 745990 761988 763947 750438 721330 680078 633852 592044 
1757.891 562284 548416 550307 565369 590120 619916 650278 675996 692058 
1762.230 694779 682102 655289 617460 574095 531895 498024 479216 479449 
1766.570 499020 532293 570213 601998 621608 629339 630899 633819 643376 
1770.909 660299 679381 691826 690299 674270 649415 622371 595827 568554 
1775.249 537003 499119 455865 411985 374410 349704 340121 343968 353850 
1779.589 360714 356270 337734 308620 277519 252621 239293 238995 250101 
1783.928 269463 294263 322911 355110 391555 432282 477292 525625 577313 
1788.268 632193 690830 752960 815863 873097 913338 922469 890893 820079 
1792.607 725943 630998 555316 509237 494044 505123 535146 575886 618589 
1796.947 656118 681770 689470 674536 633786 566962 478254 377726 278912 
1801.286 195800 139118 113532 117708 145880 189766 240420 289290 329941 
1805.626 358393 373481 377229 373912 368673 365987 368706 376665 387443 
1809.966 397425 403262 402566 395469 383099 367578 351031 334384 317606 
1814.305 300132 280039 254146 219071 171237 108792 33433 -49234 -129965 
1818.645 -199520 -249527 -276514 -281448 -269395 -246149 -216212 -181271 
1822.502 -140498 -91771 -36048 23128 77308 117442 138688 142764 137229 
1826.842 130600 129175 133318 138157 135506 118370 86985 50598 22664 14148 
1831.664 26607 54873 88775 118205 136268 140842 134578 124104 116117 114393 
1836.485 118404 124336 126325 120127 103854 78998 49438 20411 -2485 -11894 
1841.307 -66 40856 115222 220927 341945 449596 512090 506152 430425 303779 
1846.129 154697 10106 -110984 -197400 -247242 -264792 -260123 -243831 
1849.986 -226908 -216609 -215847 -223994 -238334 -253865 -265620 -270422 
1853.844 -267475 -259262 -248831 -239493 -231048 -220947 -203097 -171501 
1857.701 -123671 -61658 7223 73762 129308 169778 196396 215424 233956 256135 
1862.523 281962 306730 324205 330107 324171 309913 293302 278348 266313 
1866.863 255041 241647 227193 219502 231105 271518 339856 422498 497825 
1871.202 545463 548781 502868 414140 299369 179524 75353 530 -40686 -52448 
1876.024 -44562 -27632 -9277 6560 20543 35421 54243 78302 105975 131893 
1880.846 147537 140908 101534 21968 -97999 -247871 -405338 -541205 -626874 
1885.185 -640505 -574958 -436752 -243632 -18587 211877 422863 595030 716152 
1889.525 784161 807165 800460 781937 765673 760395 767996 783962 799696 
1893.865 807265 800725 780344 752861 727005 709614 701417 696206 685122 
1898.204 661096 622305 574725 529804 499716 491921 506351 536274 572569 
1902.544 607805 640223 673640 713696 762652 816294 863336 889499 883024 
1906.883 838470 759333 655089 535610 406612 269728 123905 -28229 -176204 
1911.223 -302143 -385542 -407754 -360481 -248136 -87431 98286 283686 451818 
1915.563 594566 712269 808692 884253 934191 950760 926587 861577 762354 
1919.902 639294 502901 361112 220795 88675 -25943 -112475 -160571 -163518 
1924.242 -122015 -44728 54276 154233 236376 285477 296717 278149 250996 
1928.581 243504 282725 386713 556444 773838 1004359 1209384 1353345 1413210 
1932.921 1385421 1285314 1142903 992238 865029 782634 753458 776726 844247 
1937.261 940300 1044314 1129981 1167654 1127954 987356 736199 387974 -18223 
1941.600 -414375 -723739 -887813 -883878 -732406 -486135 -209157 46323 
1945.458 244962 373614 438485 456130 447672 432680 425815 434471 457258 
1949.797 481837 489400 460409 381275 258920 125993 39398 61368 243305 597486 
1954.619 1086331 1619127 2079259 2357745 2386496 2168960 1779126 1341247 
1958.476 980017 794883 826386 1048964 1383227 1729424 2005621 2166030 
1962.334 2207756 2160269 2067241 1963781 1870895 1788941 1702479 1587234 
1966.191 1422418 1196991 919215 619783 342674 140179 55867 112769 312201 
1970.531 632160 1027010 1439239 1817821 2126438 2356546 2522016 2645577 
1974.388 2743997 2819262 2854614 2826465 2716456 2521150 2256781 1956059 
1978.246 1658406 1397520 1199018 1074340 1023456 1038900 1108919 1216960 
1982.103 1342510 1458255 1535757 1550322 1491569 1366973 1202673 1034350 
1985.961 902746 836744 843682 904705 978622 1018740 989049 880733 719670 
1990.300 566530 491257 557738 789672 1154564 1567447 1921812 2124907 2120844 
1994.640 1913325 1553614 1128519 725113 413245 230408 178198 229878 346388 
1998.979 496399 657910 824494 997086 1177987 1365610 1557970 1753542 1953929 
2003.319 2160569 2364275 2541513 2651878 2647477 2497022 2204859 1818653 
2007.176 1417731 1089420 888469 820842 840528 877413 863071 768129 613114 
2011.516 460641 380280 416429 568919 789871 1008942 1163102 1227493 1223805 
2015.856 1209119 1238924 1344139 1506929 1670979 1763723 1735811 1579452 
2019.713 1329814 1047436 792161 604653 490130 422929 359487 263429 111775 
2024.053 -95150 -336643 -580220 -790620 -936417 -994009 -953312 -816284 
2027.910 -605466 -357634 -120259 59247 153172 155956 83605 -37075 -179085 
2032.250 -327274 -476404 -623598 -759860 -859904 -888805 -815788 -629653 
2036.107 -352535 -33033 265783 494143 635080 707192 752761 815464 921971 
2040.447 1064707 1209252 1308976 1329182 1261686 1127688 965671 820577 
2044.304 726872 700189 740779 839400 981345 1146292 1310238 1439140 1496955 
2048.644 1461314 1330711 1135927 929011 770486 704138 740414 848297 967895 
2052.983 1031958 987920 826121 582422 330206 147736 98054 201601 435334 
2057.323 741244 1051189 1307580 1474945 1548160 1546265 1503305 1452803 
2061.180 1421321 1422285 1453867 1501776 1540812 1544137 1487878 1361455 
2065.038 1174598 958996 758702 620579 579835 645333 798900 1000042 1199815 
2069.377 1349988 1418895 1395326 1287308 1117390 913537 705300 518459 374111 
2073.717 288295 268999 312102 401704 513649 618091 691328 722890 716352 
2078.056 688573 660133 646993 653430 672379 690000 695974 690664 687113 
2082.396 706627 769756 885083 1042022 1211478 1355506 1438475 1439705 
2086.253 1361921 1231015 1088258 974338 920278 936349 1011400 1116726 
2090.111 1216827 1280860 1288570 1234837 1126260 976496 799199 607075 411255 
2094.450 222121 54210 -73352 -141161 -132979 -42707 118868 323707 535112 
2098.790 713265 827249 865494 834055 756611 663585 584778 539425 533255 
2103.130 557473 595263 627946 638066 617228 566066 495072 421105 366716 
2107.469 352258 391257 485021 619683 768395 894479 964973 958232 871503 
2111.809 722591 545795 383032 269264 226894 258887 352158 482301 622338 
2116.148 750205 850222 915231 944385 941496 912408 864996 810551 760329 
2120.488 727204 722989 753790 820776 918286 1034250 1151707 1253179 1320674 
2124.828 1341679 1311169 1234139 1124699 1004559 897733 824394 794020 802053 
2129.167 831664 860215 866656 841790 791730 735668 696671 692324 724748 
2133.507 779647 829706 848961 825722 771017 717015 707324 782701 963346 
2137.846 1242712 1586735 1948737 2276033 2527249 2680482 2733494 2697485 
2141.704 2588309 2424579 2220245 1989577 1750049 1520495 1321605 1171774 
2145.561 1077994 1034615 1021198 1008278 962483 860614 692722 469630 218839 
2149.901 -21238 -206839 -302805 -288170 -160140 69487 374874 727769 1103505 
2154.240 1480364 1844374 2186576 2496688 2763371 2972998 3109302 3161466 
2158.098 3131728 3037458 2908148 2779977 2679648 2618642 2595109 2597642 
2161.955 2613175 2630376 2642843 2646911 2640943 2623309 2596742 2570276 
2165.813 2562644 2600508 2710288 2904512 3174215 3481226 3765125 3953535 
2169.670 3989181 3844143 3536341 3120115 2675214 2280563 1985549 1807107 
2173.528 1725232 1696591 1674272 1630169 1561129 1488443 1442830 1449379 
2177.385 1513945 1620357 1733582 1812630 1828402 1766384 1634692 1459851 
2181.242 1281525 1141209 1073277 1100548 1228224 1445157 1725631 2036280 
2185.100 2339922 2604942 2811991 2955484 3040995 3079668 3083206 3057578 
2188.957 3006461 2934567 2851345 2775576 2730593 2736395 2801120 2913352 
2192.815 3042362 3143209 3170878 3094885 2905613 2616042 2257014 1868931 
2196.672 1487612 1142571 853310 630368 480477 407441 410625 482102 605880 
2201.012 756943 905170 1025449 1099186 1119051 1088324 1017743 921639 816427 
2205.351 718940 645997 613114 629937 696737 800792 916360 1012961 1065139 
2209.691 1061718 1013127 948967 908324 923565 1010968 1161840 1347363 
2213.548 1526713 1664460 1738406 1744893 1695726 1610979 1511052 1409022 
2217.406 1312432 1222808 1141508 1070719 1012031 964741 924196 881962 829307 
2221.745 762785 685885 611090 555117 531463 547188 599377 677589 769191 
2226.085 864996 962582 1064508 1174166 1290199 1401775 1492865 1543771 
2229.942 1540878 1485152 1392866 1293256 1219353 1197888 1238990 1333270 
2233.800 1452936 1563291 1631432 1636854 1578055 1471221 1343175 1221014 
2237.657 1125629 1064641 1033154 1016913 1000573 971748 925491 862739 789207 
2241.997 710344 629837 549046 469199 391821 321486 262434 218076 187380 
2246.336 164674 141969 112604 76446 41817 25016 43672 112537 236774 409033 
2251.158 611222 821340 1019039 1189283 1326091 1430164 1506231 1559832 
2255.016 1595681 1616533 1624515 1620025 1602033 1567081 1509024 1420557 
2258.873 1297078 1138917 955077 763183 586537 446445 358426 326028 341050 
2263.213 386315 442166 493347 530932 553790 566464 574991 583550 593272 
2267.552 602031 606113 601401 584844 554321 509104 449596 377693 297579 
2271.892 214595 135340 66737 13419 -21834 -38201 -36147 -16367 21007 74856 
2276.714 143162 222121 306266 390030 470095 546226 620944 697534 777158 
2281.053 855933 925557 973640 989647 968360 912342 833225 746919 670454 
2285.393 614341 582655 570312 568488 566729 558435 542842 524928 512753 
2289.732 514379 535212 576284 633852 700189 766934 825357 868383 892121 
2294.072 895242 879106 847102 804311 755582 705599 658275 616299 581062 
2298.412 553624 534615 523833 521478 526985 539425 557539 579901 604586 
2302.751 630733 657213 683595 710544 739319 772345 812510 862373 922569 
2307.091 991773 1064774 1134067 1192273 1233076 1254475 1259559 1255073 
2310.948 1248627 1246367 1249457 1254209 1252216 1234072 1193403 1129050 
2314.806 1046373 956107 872765 809655 778651 787116 837706 927981 1050425 
2319.145 1193469 1341546 1477638 1586469 1656410 1682155 1666222 1618196 
2323.003 1551619 1480830 1418761 1373255 1347728 1341280 1350952 1371360 
2326.860 1397919 1425576 1451374 1474014 1494594 1516838 1545500 1584573 
2330.718 1635623 1696990 1763556 1829001 1888532 1940183 1985316 2027691 
2334.575 2070304 2114185 2156506 2191838 2215283 2224675 2222976 2217714 
2338.432 2218213 2231535 2258479 2292620 2321601 2332460 2314605 2264175 
2342.290 2184878 2085285 1975198 1862043 1750083 1641211 1536057 1437045 
2346.147 1347263 1271190 1211378 1169515 1145993 1141807 1159780 1205696 
2350.005 1286842 1410650 1580250 1791037 2027558 2265874 2479760 2648444 
2353.862 2764338 2833969 2877394 2917855 2973098 3047968 3133264 3207894 
2357.719 3248519 3240073 3181058 3086076 2979971 2890203 2835703 2820729 
2361.577 2833269 2850412 2845942 2799119 2703253 2568043 2417749 2281395 
2365.434 2186643 2148881 2166396 2221444 2286292 2332360 2338723 2299482 
2369.292 2224475 2133930 2049763 1989444 1958589 1951766 1955427 1954561 
2373.149 1939518 1906536 1858815 1802150 1741832 1678696 1610247 1533363 
2377.007 1446886 1354376 1264112 1185462 1126227 1088922 1069092 1057533 
2380.864 1043982 1020965 986791 945946 906697 878177 865959 870341 885979 
2385.204 904738 917289 917090 901750 872466 833324 789771 747019 709581 
2389.543 681272 665941 666007 683629 718376 767200 823863 879804 925524 
2393.883 951591 951093 920344 859585 773374 670753 563942 466081 390328 
2398.222 345526 334451 352490 389565 432481 469564 494575 508374 518592 
2402.562 534781 564772 610459 665642 717945 753558 762088 740945 696306 
2406.902 640655 588925 551866 533719 530667 534548 535212 525525 504427 
2411.241 476131 448767 430757 428103 442830 472350 510398 549975 583816 
2415.581 606278 614043 606477 585342 555018 521113 490262 467375 455201 
2419.920 453377 458286 465020 469398 469332 467209 467972 478951 506716 
2424.260 554686 622404 704835 793589 878343 948137 992835 1002964 972312 
2428.600 898065 783663 638896 481903 335711 223181 163945 167326 230110 
2432.939 335943 462134 583152 678120 736962 759565 754719 734838 711672 
2437.279 692390 679248 670885 665111 661461 661826 669425 687279 716119 
2441.618 753790 795414 835316 868582 891756 903012 900655 882825 847234 
2445.958 792427 719305 632359 540387 454704 385884 341215 321452 322082 
2450.298 333821 346753 354115 353916 349439 346819 353551 373879 408602 
2454.637 454107 504460 551767 589091 611090 614540 599211 567592 525923 
2458.977 483462 451321 440806 459547 509403 584214 671582 753757 813771 
2463.316 839864 828013 782767 715522 641086 571872 515838 475170 446644 
2467.656 425085 404821 383165 360283 338529 321253 312102 312665 323309 
2471.996 341879 365522 389897 410094 421802 422034 409928 387576 360117 
2476.335 333257 312566 301458 299270 302751 307062 308189 305404 302055 
2480.675 304542 320424 356038 413212 488637 574858 661328 736962 792991 
2485.014 823631 827316 806336 766104 714028 658242 606312 563942 533985 
2489.354 516203 508374 507346 510365 516767 528179 548018 578872 622471 
2493.694 677356 739352 801854 857725 900322 924495 927384 908690 870873 
2498.033 818850 760760 706495 665277 644272 644968 662556 686018 701682 
2502.373 697633 668131 615834 552198 494442 458850 456926 491987 557937 
2506.712 641551 726773 799564 849226 871669 868349 845309 811149 775863 
2511.052 749176 738456 747583 775100 815265 857526 890362 904572 895143 
2515.392 863104 814867 759433 705532 659005 622272 595097 577280 569516 
2519.731 574825 597320 639692 701118 775763 853741 924296 978024 1011300 
2524.071 1026279 1031593 1037505 1054278 1087195 1135661 1192406 1246600 
2527.928 1286942 1304655 1296014 1263580 1215166 1160312 1108720 1067498 
2531.786 1039232 1023024 1016282 1015950 1021231 1033287 1054178 1085169 
2535.643 1124964 1168651 1208089 1235701 1245038 1234139 1205464 1164664 
2539.500 1118653 1072679 1029368 989282 951823 917621 889100 871039 868549 
2543.840 885182 921440 973873 1036276 1100183 1157953 1203271 1231979 
2547.698 1242114 1234172 1210714 1176957 1139980 1108853 1090982 1091646 
2551.555 1110846 1143734 1181010 1212508 1231348 1235933 1230849 1225566 
2555.412 1230982 1254375 1297344 1354708 1416468 1471022 1509091 1526879 
2559.270 1526746 1516106 1503837 1498318 1503638 1518999 1538318 1552550 
2563.127 1551552 1527079 1475710 1400013 1309341 1217425 1141973 1098290 
2566.985 1097060 1141242 1224769 1334567 1452570 1562060 1650357 1711161 
2570.842 1745824 1760795 1764854 1765452 1767349 1770909 1773870 1773138 
2574.699 1766683 1754873 1740834 1729324 1724800 1730688 1747321 1772273 
2578.557 1800453 1825840 1842610 1846670 1837087 1816790 1791303 1768746 
2582.414 1757834 1764687 1791536 1835955 1890529 1944876 1988878 2015974 
2586.272 2024895 2020734 2012645 2011913 2026992 2061448 2112687 2173656 
2590.129 2234999 2289056 2331861 2364075 2389095 2410352 2429577 2444871 
2593.987 2452135 2446837 2427045 2395892 2360410 2329862 2312440 2311740 
2597.844 2324765 2342987 2355879 2354814 2337391 2308509 2279563 2265141 
2601.701 2276432 2319002 2388562 2473728 2557011 2621175 2653678 2648477 
2605.559 2607542 2539147 2455734 2370338 2294752 2239029 2209655 2210487 
2609.416 2242260 2302247 2383864 2477627 2571743 2654278 2715990 2751367 
2613.274 2760203 2746665 2717857 2681515 2643910 2609742 2581809 2562777 
2617.131 2554545 2560044 2581009 2617409 2665680 2719224 2768106 2802887 
2620.989 2816127 2804955 2772041 2724625 2672547 2624709 2588275 2566543 
2624.846 2559611 2565044 2579809 2600808 2625242 2650511 2674081 2692717 
2628.703 2704120 2706687 2701186 2691184 2682616 2682015 2695585 2726192 
2632.561 2773108 2831401 2892971 2948712 2990380 3012767 3014569 2998354 
2636.418 2969795 2935468 2902444 2876260 2860517 2857783 2868789 2893038 
2640.276 2928463 2971630 3017038 3058245 3088979 3104396 3102661 3086309 
2644.133 3061549 3035923 3017205 3010165 3015670 3031018 3051405 3072127 
2647.990 3090814 3108234 3127390 3152120 3184529 3224117 3266847 3306810 
2651.848 3338128 3356560 3361067 3353821 3339297 3322936 3309447 3302469 
2655.705 3303638 3313187 3329847 3351451 3374825 3396564 3413929 3425150 
2659.563 3430293 3431429 3432431 3437206 3448996 3469436 3497894 3532132 
2663.420 3569413 3607633 3645188 3681610 3716398 3748481 3776255 3797479 
2667.278 3810114 3813791 3809546 3800019 3788321 3777023 3767331 3759009 
2671.135 3750987 3742799 3734912 3728963 3727359 3731436 3740961 3753093 
2674.992 3763588 3767665 3762251 3746943 3724017 3698051 3674493 3657551 
2678.850 3649732 3651470 3661461 3677500 3697216 3718470 3739190 3756903 
2682.707 3768902 3772478 3765693 3748247 3722246 3691535 3661561 3637637 
2686.565 3623303 3619895 3625742 3637169 3649465 3657818 3658754 3650233 
2690.422 3631957 3604359 3569179 3528224 3484166 3440012 3399236 3365275 
2694.280 3340632 3326842 3323437 3328445 3339029 3351685 3363839 3373990 
2698.137 3381737 3386913 3389785 3390219 3387748 3382372 3374858 3367078 
2701.994 3362203 3363572 3373155 3391121 3414831 3439478 3459049 3469403 
2705.852 3468568 3458514 3444955 3436104 3440279 3463691 3508616 3573155 
2709.709 3650701 3732272 3808476 3871756 3918160 3948252 3966810 3981256 
2713.567 3999447 4027738 4068975 4121823 4181101 4240186 4292050 4331907 
2717.424 4358346 4373708 4383716 4394794 4413404 4443162 4484740 4534625 
2721.281 4587061 4634714 4670616 4690277 4692721 4680429 4659095 4636288 
2725.139 4619108 4612109 4616664 4630059 4647105 4661004 4666095 4659095 
2728.996 4639369 4608995 4571356 4530172 4488088 4447045 4407647 4370227 
2732.854 4335053 4302558 4272709 4245271 4219040 4192575 4164173 4132995 
2736.711 4099078 4063490 4027304 3992090 3958083 3924881 3891380 3856779 
2740.569 3820844 3784377 3749550 3718302 3692470 3673056 3659957 3652238 
2744.426 3649031 3649699 3653842 3661761 3673457 3688360 3705236 3722246 
2748.283 3737251 3748681 3755834 3758942 3759142 3758039 3756769 3756068 
2752.141 3755867 3755399 3753962 3751021 3746509 3741396 3736583 3733676 
2755.998 3733709 3737552 3745740 3758106 3774483 3793903 3814627 3834315 
2759.856 3850261 3859387 3860055 3852400 3839062 3824822 3816265 3818805 
2763.713 3836488 3869583 3915051 3967011 4018776 4064795 4101921 4130152 
2767.571 4152398 4173105 4196892 4227571 4267623 4317650 4376620 4441623 
2771.428 4508477 4571557 4625002 4664052 4686358 4693090 4689339 4683544 
2775.285 4685186 4702435 4740453 4799514 4875939 4963103 5053870 5141807 
2779.143 5223558 5297709 5365467 5428907 5490746 5553331 5618511 5687493 
2783.000 5760751 5837950 5918018 5999411 6080752 6161032 6240757 6320899 
2786.858 6403107 6488594 6577158 6667557 6757739 6845988 6932168 7017084 
2790.715 7103803 7195289 7293533 7398641 7508797 7620499 7730105 7835353 
2794.573 7935226 8031173 8125455 8220566 8318367 8419974 8525017 8632654 
2798.430 8742008 8851898 8961646 9071455 9181529 9293391 9409447 9532443 
2802.287 9665265 9809786 9966526 10133735 10307896 10484843 10661046 
2805.663 10834569 11006055 11178119 11355046 11541164 11739311 11950763 
2809.038 12174925 12409705 12652218 12899850 13149947 13400563 13650332 
2812.413 13898294 14144414 14389268 14635563 14886593 15146962 15421392 
2815.788 15713722 16025914 16357390 16705716 17066902 17437560 17815338 
2819.164 18201114 18597608 19009768 19442828 19900810 20385912 20898290 
2822.539 21437240 22002130 22593378 23213144 23864846 24551676 25276258 
2825.914 26039870 26842750 27686102 28572922 29509536 30505754 31573348 
2829.289 32724056 33968540 35314304 36765360 38324628 39994276 41778228 
2832.665 43683144 45717804 47893252 50221084 52711412 55373144 58212092 
2836.040 61231060 64429096 67802400 71344536 75045504 78894416 82878664 
2839.415 86983912 91196232 95500296 99880424 104322712 108814480 113346608 
2842.790 117914096 122514192 127145320 131803560 136480064 141160080 
2845.683 145822256 150438672 154978928 159405952 163677200 167745328 
2848.576 171551888 175033136 178123472 180756336 182875056 184435216 
2851.469 185406288 185774832 185542800 184728816 183364864 181500144 
2854.363 179196192 176520304 173547200 170347600 166984720 163517600 
2857.256 159994720 156460304 152956624 149520992 146190976 143001136 
2860.149 139980752 137155984 134547488 132169200 130029528 128129392 
2863.042 126461912 125012744 123761952 122686696 121762488 120968664 
2865.935 120286280 119697360 119183440 118720424 118278008 117821824 
2868.828 117312280 116713552 115995928 115137224 114126440 112960928 
2871.721 111645680 110191744 108616920 106946256 105209536 103445256 
2874.614 101694696 99998168 98395256 96918176 95591416 94433408 93455240 
2877.989 92664088 92063632 91654496 91436080 91404552 91555400 91881128 
2881.365 92374208 93025816 93826104 94765336 95833216 97019368 98315512 
2884.740 99714488 101211456 102802904 104484904 106252104 108096512 
2887.633 110007136 111971312 113977152 116013192 118069792 120139056 
2890.526 122212952 124284192 126345232 128390360 130416528 132424592 
2893.419 134417568 136399440 138372784 140336720 142287360 144219152 
2896.312 146127744 148012064 149875808 151726048 153572384 155423520 
2899.205 157286672 159166352 161066784 162991632 164946752 166938352 
2902.098 168973584 171058640 173197104 175390208 177636640 179933568 
2904.991 182277280 184665440 187097248 189575760 192107312 194701584 
2907.884 197371024 200126816 202977536 205926528 208972128 212108352 
2910.777 215327632 218624912 221996736 225441696 228957600 232536320 
2913.670 236163024 239815520 243464800 247080000 250629488 254079488 
2916.563 257394784 260533504 263444640 266073520 268359776 270246688 
2919.457 271687552 272644416 273092448 273016928 272412128 271282496 
2922.350 269641696 267515504 264937104 261946944 258586496 254893632 
2925.243 250904048 246651104 242168400 237495200 232674272 227750400 
2928.136 222769600 217770480 212785456 207840096 202951760 198133840 
2931.029 193396272 188745040 184184032 179715648 175341040 171063664 
2933.922 166888992 162826352 158887280 155082432 151420688 147908080 
2936.815 144547184 141340720 138292736 135410720 132706952 130195440 
2939.708 127889944 125802056 123937392 122296336 120874552 119663368 
2942.601 118653320 117833896 117196048 116731152 116431176 116289104 
2945.494 116296768 116445432 116724480 117119584 117613088 118183040 
2948.387 118802096 119441704 120070200 120654592 121164912 121571576 
2951.280 121848152 121973400 121930752 121710208 121308680 120728216 
2954.173 119973968 119052016 117967784 116725472 115330512 113791344 
2957.066 112121032 110338080 108462664 106512312 104499528 102428360 
2959.959 100295176 98092352 95813008 93454656 91021520 88524424 85978864 
2963.335 83401936 80808584 78211312 75618840 73037432 70472368 67929152 
2966.710 65414904 62939076 60511940 58144316 55846272 53623708 51478976 
2970.085 49410192 47412520 45481092 43612068 41804824 40062004 38388148 
2973.460 36787572 35263772 33817400 32446976 31149634 29922138 28761082 
2976.836 27662688 26623078 25636596 24696890 23797536 22932282 22098170 
2980.211 21294366 20522304 19784240 19082674 18418122 17790276 17197188 
2983.586 16637234 16108913 15611392 15143909 14704931 14292180 13902160 
2986.961 13530642 13173684 12828621 12493858 12169337 11855886 11554911 
2990.337 11268324 10998205 10747273 10518041 10312137 10129258 9966899 
2993.712 9819954 9681155 9543349 9400508 9248880 9087999 8919705 8747317 
2997.569 8573949 8403285 8238092 8081367 7936373 7806474 7693949 7599492 
3001.427 7520833 7453041 7389170 7322680 7247979 7162781 7068440 6969135 
3005.284 6870123 6776687 6692691 6618839 6554586 6496665 6441611 6384546 
3009.142 6321605 6249799 6167687 6076081 5978179 5878856 5783617 5697497 
3012.999 5623915 5563031 5512859 5468700 5425552 5378282 5323839 5260548 
3016.856 5189789 5114013 5037378 4964678 4899831 4845917 4804103 4773583 
3020.714 4750905 4731643 4710273 4681568 4641579 4588233 4521668 4444234 
3024.571 4359685 4273211 4190234 4115802 4053590 4005098 3969017 3941766 
3028.429 3917792 3891414 3857615 3814593 3762886 3706372 3649532 3597376 
3032.286 3552843 3517000 3489343 3468334 3453304 3443986 3440780 3443218 
3036.144 3449931 3457346 3460084 3452837 3430894 3392323 3337961 3272222 
3040.001 3200751 3129626 3063785 3006161 2957619 2917555 2885132 2860017 
3043.858 2843007 2835136 2837538 2849644 2868556 2888802 2902678 2903311 
3047.716 2884932 2846709 2792116 2729660 2669747 2621409 2590809 2578643 
3051.573 2580576 2589342 2597975 2601108 2597475 2588575 2577809 2567777 
3055.431 2559011 2549812 2537280 2519317 2495455 2467663 2439007 2411651 
3059.288 2385397 2357279 2322700 2277831 2221677 2157871 2093875 2039043 
3063.146 2001494 1985416 1989311 2007252 2030754 2051327 2064244 2068306 
3067.003 2065243 2058185 2049397 2039376 2026826 2009915 1987314 1959587 
3070.860 1929333 1899115 1871594 1847302 1824675 1799987 1769911 1732052 
3074.718 1686479 1635390 1582911 1533264 1489507 1453069 1423249 1398484 
3078.575 1376679 1356071 1336228 1316653 1297078 1277139 1255339 1230716 
3082.433 1202739 1172305 1141209 1112673 1089653 1074074 1066003 1063312 
3086.290 1062615 1060223 1053680 1042022 1026545 1010171 995160 982872 
3090.147 972976 962815 948868 928645 901186 867752 832162 799497 774137 
3094.487 758603 752462 753093 755815 756246 751533 741476 727868 714360 
3098.827 704603 701716 707258 721098 742903 771249 804908 842919 883223 
3103.166 922635 957203 981577 991440 984832 962615 929110 891092 856165 
3107.506 830403 816394 813307 817290 823398 826718 825291 818651 808692 
3111.845 798169 789605 784493 783564 786717 793389 803182 814867 826519 
3116.185 835715 839732 836578 826021 809622 790701 773141 759565 750239 
3120.525 742903 733344 717613 693585 662490 629008 600107 581726 578010 
3124.864 588527 609696 634582 656616 669989 671980 663020 645698 624030 
3129.204 602197 583849 571839 568388 574725 591148 616100 646296 677257 
3133.543 703010 718940 722193 712800 693850 669624 645234 624395 608369 
3137.883 595893 584081 569616 550240 526023 499451 474805 457092 450856 
3142.223 458618 480377 513151 552231 591679 625059 647756 657014 652833 
3146.562 637535 614839 589622 565369 544070 525890 509237 491987 472814 
3150.902 451553 429994 410525 395999 388139 387410 393114 403859 418518 
3155.241 436760 459182 486348 519023 556644 597718 639526 678817 712402 
3159.581 736863 749774 749243 734938 708917 675233 640787 612782 598083 
3163.921 599808 616797 642612 668231 684160 683994 666571 636308 601401 
3168.260 570213 548913 539359 538928 542245 544037 541084 533089 521975 
3172.600 510398 500446 492750 486680 480842 475136 470360 468204 469895 
3176.939 476065 485851 497361 508971 519587 529340 539127 549113 559264 
3181.279 568156 574261 576450 574592 569748 563710 557075 549610 539326 
3185.619 524729 505555 483595 463096 449364 446843 456694 476928 502735 
3189.958 528046 548051 561189 568421 573066 578640 586437 595495 602562 
3194.298 603292 593836 572701 540288 499617 454704 410061 369402 335313 
3198.637 308852 288892 273574 259649 244366 225767 203755 179723 156884 
3202.977 138025 125099 118569 117277 119564 124568 132854 146344 167226 
3207.317 196429 231867 268137 298540 315285 313395 292241 255339 209325 
3211.656 161757 119431 86687 65146 53978 51857 56894 67433 82014 99015 
3216.478 116713 132722 144355 149791 147504 136898 118967 95337 68824 42612 
3221.300 20311 5003 -2021 -927 5699 14380 20874 21736 15672 2816 -14744 
3226.604 -34590 -54402 -72955 -89717 -104724 -117974 -128673 -136027 -139339 
3230.943 -138975 -136457 -133907 -134105 -138610 -147885 -160670 -174846 
3234.801 -187431 -195612 -197036 -189915 -173653 -149143 -118371 -85013 
3238.658 -53673 -29620 -16367 -15572 -26407 -45722 -69377 -93494 -116351 
3242.998 -137948 -159080 -180741 -201905 -219523 -228929 -225451 -207137 
3246.855 -175674 -136954 -99457 -72590 -63579 -74710 -102703 -139968 -175376 
3251.195 -197732 -199586 -178158 -137020 -84218 -31741 9608 32273 33400 
3255.534 16235 -12723 -45026 -74015 -96243 -112442 -125626 -140266 -159676 
3259.874 -184384 -212999 -242208 -268766 -290124 -305653 -315387 -319990 
3263.731 -319791 -313401 -299594 -276779 -244592 -203726 -156364 -105287 
3267.589 -53011 -2683 43076 81583 110317 126656 129772 119696 98518 69620 
3272.411 37244 4903 -25015 -51652 -75737 -97933 -118703 -137650 -153383 
3276.750 -164379 -169480 -168586 -162889 -153880 -143546 -132913 -121949 
3280.608 -109162 -92301 -69045 -37738 1391 45661 89835 127684 152476 159271 
3285.429 146112 114990 70249 17461 -38168 -93858 -148911 -203925 -258997 
3289.769 -311911 -358263 -391997 -407821 -403418 -381073 -347238 -310454 
3293.626 -278038 -254030 -238201 -227438 -218099 -208793 -201606 -201043 
3297.484 -211708 -235121 -268203 -303004 -328730 -335650 -318500 -277938 
3301.341 -220914 -157556 -99755 -55661 -30217 -23855 -33861 -54833 -80872 
3305.681 -106380 -126719 -138577 -140631 -133542 -120524 -105850 -94222 
3309.538 -88359 -88558 -93229 -99490 -104889 -108500 -111978 -118338 -131389 
3313.878 -152687 -182265 -217271 -254129 -289097 -319625 -345086 -365314 
3317.735 -380609 -390871 -394645 -391103 -379417 -361275 -339391 -318433 
3321.593 -302706 -295686 -298931 -311149 -329161 -347503 -361077 -364156 
3325.450 -352568 -324492 -280819 -225882 -166996 -113469 -74081 -55761 
3329.308 -60664 -86206 -125162 -167592 -203627 -225087 -227902 -212105 
3333.165 -181801 -142552 -101312 -64142 -35352 -18123 -13319 -20443 -37638 
3337.505 -62188 -91009 -120856 -149441 -174912 -196639 -214291 -227571 
3341.362 -236214 -239757 -237605 -230121 -218364 -204554 -191671 -183192 
3345.219 -181470 -187166 -199752 -216443 -233797 -248334 -257275 -259958 
3349.077 -257176 -251215 -244824 -240552 -240155 -243632 -249328 -254428 
3352.934 -256149 -251447 -238598 -217967 -191141 -162061 -135298 -115788 
3356.792 -107407 -112243 -129037 -154874 -183590 -209058 -225087 -228034 
3360.649 -217503 -196473 -171335 -148680 -134072 -130660 -137782 -151661 
3364.507 -167758 -181304 -189915 -193790 -195380 -198295 -205183 -217139 
3368.364 -233167 -250619 -266580 -278766 -286614 -290653 -292574 -293037 
3372.221 -292110 -288567 -280455 -265753 -243731 -214854 -182099 -148878 
3376.079 -119332 -96707 -82529 -76300 -75936 -78222 -79580 -77195 -69575 
3380.418 -57218 -41713 -26407 -14976 -10702 -16500 -33298 -60929 -96906 
3384.758 -137749 -179350 -216907 -246977 -266845 -275322 -272342 -259395 
3388.615 -238963 -213595 -187266 -163783 -146427 -139538 -145400 -165439 
3392.473 -198924 -242937 -292011 -339292 -378292 -402789 -408350 -393222 
3396.330 -358792 -308666 -248997 -187730 -132217 -89618 -65070 -61492 -78421 
3400.670 -113204 -160769 -215052 -269859 -320519 -363791 -398088 -423147 
3404.527 -438804 -444431 -438870 -421161 -391335 -350979 -303534 -253567 
3408.385 -205680 -163154 -127746 -99755 -78586 -64540 -59438 -64772 -82628 
3412.724 -112475 -150667 -190677 -224160 -243764 -245420 -229657 -200712 
3416.582 -166897 -135828 -113469 -102902 -104061 -114694 -132350 -154575 
3420.439 -180244 -207667 -235817 -261382 -281018 -290819 -288004 -272077 
3424.297 -244857 -210714 -174647 -142353 -118636 -106413 -107009 -119067 
3428.154 -139968 -164810 -188259 -204852 -210283 -203196 -184947 -160107 
3432.011 -134801 -115556 -107208 -111349 -126354 -148779 -174216 -199785 
3435.869 -224491 -249891 -278534 -312341 -351476 -392758 -431157 -460120 
3439.726 -474021 -469851 -448006 -412620 -370115 -328432 -293965 -270951 
3443.584 -260421 -260686 -268501 -280289 -293335 -306017 -317871 -328432 
3447.441 -336941 -341411 -338597 -325221 -298733 -258832 -208164 -152290 
3451.299 -99457 -58378 -36280 -37837 -62850 -107009 -161862 -217602 -264726 
3455.638 -295720 -307010 -299130 -276879 -247341 -218265 -196208 -185146 
3459.496 -185146 -193625 -206309 -218364 -226511 -230021 -230485 -230949 
3463.353 -234525 -243466 -257971 -276746 -297375 -316712 -331975 -341047 
3467.210 -342504 -335551 -320519 -298931 -273799 -249063 -229326 -218331 
3471.068 -217437 -225087 -236313 -245188 -245288 -234293 -213132 -187630 
3474.925 -165075 -151926 -150634 -158616 -168652 -172428 -163220 -139538 
3478.783 -105651 -70470 -45258 -39560 -57616 -96806 -149243 -202799 -246381 
3483.122 -272177 -276779 -260752 -226809 -179979 -125327 -69377 -19979 15241 
3487.462 30119 22134 -5798 -45656 -86338 -117212 -131522 -128673 -113734 
3491.802 -96243 -86239 -90214 -110355 -143281 -182662 -221842 -257010 
3495.659 -287177 -313997 -338961 -361375 -376570 -378755 -362037 -324128 
3499.516 -268700 -205316 -147487 -109527 -103266 -132416 -191737 -266945 
3503.374 -340219 -394513 -418546 -410965 -377497 -329724 -279958 -240089 
3507.231 -217867 -215781 -229856 -252672 -273567 -284031 -280654 -265885 
3511.089 -246944 -231578 -225617 -229922 -240453 -250255 -252374 -243168 
3514.946 -223762 -199388 -177396 -163883 -160968 -166566 -174912 -180278 
3518.803 -178588 -169944 -157656 -146792 -141525 -143546 -151628 -163253 
3522.661 -175276 -185676 -195049 -204455 -215119 -226279 -235386 -238963 
3526.518 -234658 -221842 -202964 -182364 -165075 -154509 -152091 -156695 
3530.376 -165903 -176866 -187696 -196175 -200613 -199884 -192764 -179185 
3534.233 -160835 -141061 -124864 -117775 -123208 -141260 -168586 -198758 
3538.091 -224789 -241248 -244559 -233896 -210813 -178058 -138941 -97005 
3541.948 -54833 -15108 20742 51195 74988 90597 96463 90332 70481 36614 -8548 
3547.252 -59073 -106844 -143082 -161134 -158086 -135662 -99788 -58808 -22464 
3551.592 1557 10006 4605 -9476 -26904 -44728 -62883 -84019 -110587 -143214 
3556.413 -180013 -216675 -248069 -270057 -280289 -279263 -268468 -250255 
3560.271 -225981 -196208 -160670 -119199 -72623 -22431 29158 79363 125828 
3564.610 165867 196794 215391 219038 207667 184529 156387 129971 108925 
3568.950 91923 74955 52354 20245 -22166 -72159 -123473 -168222 -199023 
3573.290 -212204 -209422 -197169 -184683 -180940 -191836 -217867 -254030 
3577.147 -292243 -323565 -340054 -337471 -316215 -280654 -237969 -196804 
3581.004 -163816 -142817 -133178 -130230 -127348 -116583 -91837 -50427 5864 
3585.344 70150 130600 172032 182010 155559 100109 31776 -31741 -79150 
3589.684 -107042 -117510 -115191 -106413 -97270 -92765 -96442 -109692 
3593.541 -129766 -150998 -165903 -168586 -156993 -134536 -108334 -87862 
3597.398 -80276 -89518 -113899 -147587 -181205 -205084 -213032 -203461 
3601.256 -179979 -148878 -117046 -88525 -63943 -40587 -13882 22034 72238 
3605.595 140643 227557 328946 435400 532458 604520 641086 639792 606843 
3609.935 554023 493546 433510 378290 328117 280570 233657 187612 146112 
3614.275 114493 97922 99347 118967 154664 202396 255505 306200 344664 361642 
3619.096 351561 313859 254544 182706 108626 40756 -15307 -55959 -80044 
3623.436 -86802 -76400 -48869 -3578 60275 143626 246620 366351 494575 612848 
3628.258 695178 719504 685288 615204 539293 476331 430624 398055 371193 
3632.597 342873 307924 265418 218209 171734 132258 104185 90001 90100 102992 
3637.419 125132 151316 174717 188706 188606 172994 144687 109422 75154 49173 
3642.241 35388 33731 40922 52520 65378 79893 100407 134743 191722 277917 
3647.063 392053 521511 640356 718608 734539 684292 585906 470360 367645 
3651.402 294363 254676 243736 253715 276525 304774 331533 350102 354612 
3655.742 341845 312997 273276 229215 185921 145781 109786 78335 52686 34261 
3660.564 24387 22962 28893 40127 54276 69885 85925 102197 118172 132125 
3665.385 141969 145416 141240 130667 117708 108825 111841 133219 173458 
3669.725 225668 279078 326327 368208 411985 466446 537866 627680 729030 
3674.065 823266 879272 862573 763316 611587 456462 330472 243305 189402 
3678.404 159470 144521 138920 138787 142068 147338 152807 157282 160431 
3682.744 163282 168419 178794 197192 225104 262401 308255 361974 423327 
3687.083 492253 566265 638166 694049 717480 695377 626187 520483 397890 
3691.423 279343 180220 108925 65544 44700 38934 42546 52255 67830 91227 
3696.245 124336 167259 217678 271021 322049 366020 398188 414306 410260 
3700.584 382701 331533 262069 185258 114426 62130 35156 35057 58883 101269 
3705.406 156188 218673 285278 354745 426710 501076 575555 645002 701251 
3709.746 733776 732747 693950 621044 525890 424488 330869 253118 193313 
3714.085 149526 117807 93680 73066 53050 31975 10735 -7918 -18753 -17030 397 
3719.389 32837 76745 125032 170276 206540 230839 244266 250532 254345 258820 
3724.211 264921 271253 276160 278481 278813 278614 280139 284482 291677 
3728.551 301425 312931 326260 341713 359984 381905 407474 436627 469166 
3732.890 505322 546458 592144 639029 678418 697633 685421 639725 568255 
3737.230 484524 400808 327123 269330 231138 215060 221657 250466 300132 
3741.570 368839 453510 548748 643940 720002 754056 734008 671483 593969 
3745.909 527383 485121 469962 479780 509867 555184 606378 651871 677589 
3750.249 670786 624959 544866 444820 343172 256931 195601 160199 147140 
3754.588 149360 159768 171204 178364 177966 169248 153205 132622 110482 
3758.928 89338 70912 56265 46025 40425 39497 42745 49339 58651 69653 82080 
3764.232 95038 108162 121121 133550 145979 159636 175811 196330 222353 
3768.572 253516 286969 318534 343006 357365 361875 359620 354513 349174 
3772.911 344797 340618 335313 327852 318568 309913 305802 309980 325133 
3777.251 350368 381474 411056 429430 430027 411122 377593 336971 296650 
3781.590 260975 230707 204949 181612 159370 137660 116150 95767 76513 58419 
3786.412 42049 28197 18422 14479 17826 28231 44236 63323 83074 101865 119365 
3791.716 137130 156884 179988 206772 236343 267142 297844 328084 358393 
3796.056 390030 424621 462001 500778 539027 573896 602363 620944 624827 
3800.395 608369 569317 511393 446412 388604 346819 323110 314290 315351 
3804.735 320557 324238 320623 306200 281498 251858 224607 205744 197358 
3809.074 198551 207435 222618 244133 272447 308421 352788 404058 460310 
3813.414 517795 571573 617294 650776 670454 679447 685056 693717 709150 
3817.754 730092 752662 770453 775465 759034 714061 641186 552397 467142 
3822.093 399913 354811 326890 309184 294296 277055 254676 226497 195103 
3826.433 164906 141604 129871 132755 151548 187081 239459 307891 389201 
3830.772 476297 558103 622603 660333 668728 652468 623068 593670 576152 
3835.112 577943 599244 632293 663186 677954 667932 635246 590949 551169 
3839.452 526056 516270 513383 505521 483296 442962 387907 327686 274867 
3843.791 238265 221657 221292 229944 239393 244896 245692 244962 248112 
3848.131 260975 288527 333555 397027 478918 579536 698530 832992 973010 
3852.470 1094802 1163568 1155262 1077828 964874 849226 748546 665609 597088 
3856.810 536771 479880 423162 366584 311173 260544 218806 190131 178794 
3861.150 187181 215225 259218 312699 366418 411321 440972 454273 456528 
3865.489 456727 464721 486647 523767 572801 626154 671317 692091 675100 
3869.829 617792 534283 446014 370729 316711 284979 273773 281432 305636 
3874.168 342741 387045 431387 468934 495935 510597 513184 505654 491058 
3878.508 472251 451752 430823 409431 387277 365224 345858 332693 328615 
3882.848 334252 347847 364494 377859 380545 368507 343901 314953 290483 
3887.187 276094 272745 278514 290152 304542 319430 332561 342641 347980 
3891.527 347383 340386 327951 312997 299502 291312 292373 303779 325829 
3895.866 356735 393810 434670 477226 520582 564705 609563 653463 693352 
3900.206 725479 746554 754719 750736 736166 713199 683131 646428 603724 
3904.546 556444 507412 460542 419480 386514 362903 347781 339823 336142 
3908.885 334815 333522 330571 325232 316744 305404 291611 276193 260942 
3913.225 247217 236774 231171 231469 237934 250068 266413 285245 303945 
3917.564 320557 333854 342641 347350 348278 347748 347052 348975 354745 
3921.904 364627 377593 391423 402864 409265 409232 403262 393711 383264 
3926.244 373647 365357 357829 350500 343835 339690 341713 353916 379384 
3930.583 417988 465782 515108 555283 577612 576749 553060 511327 459248 
3934.923 405086 355209 314721 286074 269960 265451 270656 282857 300066 
3939.262 320126 341580 362936 382303 397691 407441 410791 409696 408171 
3943.602 410890 422034 442962 471421 502569 529274 544202 542378 522738 
3947.942 490296 454837 426545 414406 420906 442564 470393 494342 505057 
3952.281 496698 468171 422830 366948 307493 251924 205479 171270 149758 
3956.621 139781 138886 144256 153139 163646 174386 184993 195501 206010 
3960.960 216684 227359 237967 248709 259815 272182 286372 302884 321784 
3965.300 342409 363732 384359 402931 418419 430160 437589 440707 439314 
3969.640 433908 424919 414140 403362 394706 389798 389565 393645 401272 
3973.979 411554 423526 437125 452813 471056 491788 514279 537103 557639 
3978.319 574194 584679 588229 583982 571507 550970 523269 490495 456064 
3982.658 424422 400344 386945 385519 394208 408867 424223 434571 436428 
3986.998 428203 410890 386813 359487 332362 308852 292506 286372 292837 
3991.338 312997 345427 386216 428601 465152 489267 496631 487410 465749 
3995.677 438020 411122 390461 378290 373946 375073 378555 382468 386315 
4000.017 390395 395867 
##END=
