##TITLE=lb_1 Sep 01 12:56:00 2026 (GMT+02:00)
##JCAMP-DX=5.01  $$ Nicolet v. 970
##DATATYPE=INFRARED SPECTRUM
##ORIGIN=Vojna akademija
##OWNER=Nicolet
##LONGDATE=2026/09/01
##TIME=12:56:31
##SPECTROMETER/DATA SYSTEM=Nicolet iS20
##DATA PROCESSING=
Ratio against background
%Transmittance->Absorbance
Truncated
ElementMultiply or ElementDivide
##COMMENTS=
Number of sample scans: 8
Collection length: 11,90 sec
Sample gain: 8,0
Background collected on: Tue Sep 01 12:38:26 2026 (GMT+02:00);
Number of background scans: 8
Background gain: 8,0
Sample spacing:  1,000
Number of scan points: 12415
Resolution points: 8286
Number of FFT points: 65536
Apodization: N-B strong;
Phase correction: Mertz;
Laser frequency: 15798,00 cm-1
Number of rejected sample scans: 0
Number of rejected background scans: 0
Bench serial number: BER2010005;
##RESOLUTION= 4,000
##XUNITS=1/CM
##YUNITS=ABSORBANCE
##FIRSTX=400.156891
##LASTX=4000.123047
##FIRSTY=-0.001169
##MAXX=4000.123047
##MINX=400.156891
##MAXY=0.178300
##MINY=-0.004540
##XFACTOR=1.000000
##YFACTOR=1.000000E-009
##NPOINTS=7468
##DELTAX=0.482117
##ZPD=6100
##XYDATA=(X++(Y..Y))
400.157 -1169183 810352 2694385 4175681 4991691 5000272 4213921 2782845 
404.014 985861 -828917 -2271550 -3051403 -3051206 -2370818 -1263251 -41051 
407.871 1028704 1803980 2268672 2519050 2702853 2955717 3332652 3788856 
411.728 4193880 4386627 4229813 3659556 2719424 1542242 305537 -842906 
415.585 -1796484 -2516152 -3016394 -3361394 -3641298 -3933631 -4251295 
418.959 -4503048 -4540134 -4274819 -3743604 -3072526 -2419059 -1918293 
422.334 -1673915 -1719165 -1995709 -2340038 -2526628 -2351375 -1704313 
425.709 -627138 708287 2046400 3143143 3797446 3912544 3515798 2743097 
429.566 1794198 868781 135638 -318632 -489081 -440360 -266945 -62784 102760 
433.905 198982 220695 180916 97491 -6693 -103167 -157457 -121021 55503 
438.244 415567 980415 1735046 2616509 3513693 4295296 4824809 5006741 
442.101 4820487 4328225 3654277 2931165 2256015 1653051 1083176 479316 
445.958 -208959 -980587 -1769162 -2469733 -2968581 -3197530 -3153717 
449.333 -2887652 -2473588 -1980207 -1453904 -906627 -328366 296518 966301 
453.190 1651854 2300382 2857315 3276395 3535940 3640544 3618792 3515230 
457.047 3380836 3258367 3162701 3076899 2964658 2792616 2545712 2232634 
460.904 1882642 1544835 1274978 1119184 1106096 1236897 1495226 1866336 
464.761 2353747 2981739 3782204 4764371 5881845 7012808 7986623 8608488 
468.617 8734030 8308741 7384317 6103803 4677884 3352285 2331261 1740867 
472.474 1576592 1712824 1943678 2071369 1977794 1631466 1086431 453012 
476.331 -114827 -460484 -451845 -19879 806302 1896120 3039460 4012556 
480.188 4603068 4677884 4219609 3339397 2246623 1185396 376532 -62883 
484.045 -133410 54144 337933 556312 610426 487874 245891 -22795 -231876 
488.384 -317904 -259461 -71530 202032 508407 792526 1006120 1115596 1101379 
492.723 963213 721396 414804 92188 -199288 -416626 -533428 -539484 -445821 
497.062 -282077 -91374 79595 196496 244034 234320 203888 213601 329609 
501.401 597088 1018275 1539149 2059484 2461432 2656812 2601575 2309275 
505.258 1839216 1283054 737593 277553 -55794 -264792 -381039 -446549 -490206 
509.597 -518072 -515458 -461411 -340749 -158086 62561 283487 470459 608070 
513.936 704835 792028 910748 1098655 1372391 1714687 2076396 2394526 2612242 
518.276 2703653 2684816 2609009 2544513 2544646 2630743 2778577 2928663 
522.132 3000756 2927829 2671780 2242726 1696658 1132406 663618 381175 335048 
526.471 512952 855036 1277936 1712558 2118880 2485425 2818828 3125421 
530.328 3397499 3611609 3729498 3714092 3544960 3227622 2796217 2308176 
534.185 1838018 1456194 1215399 1138419 1212308 1394296 1624049 1846137 
538.042 2017771 2123441 2174222 2204160 2253783 2357545 2534014 2780077 
541.899 3072261 3375292 3654711 3882387 4041550 4127075 4139586 4082956 
545.756 3961593 3782238 3552877 3284641 2991681 2688183 2390061 2115617 
549.613 1882509 1712092 1624880 1636421 1755904 1982354 2302347 2688917 
553.470 3105598 3509117 3854774 4108243 4247346 4265414 4168990 3975604 
557.327 3709781 3397966 3068223 2744631 2446137 2187442 1978293 1827071 
561.184 1741333 1726330 1783718 1906836 2079393 2273968 2456000 2591909 
565.041 2653445 2628442 2521816 2354713 2154741 1946806 1745591 1551087 
568.898 1352215 1135728 896936 646661 412084 229049 134511 150786 280570 
573.237 503830 785887 1087627 1376579 1637419 1873524 2102665 2344686 
577.094 2611975 2900009 3188234 3443719 3632758 3729632 3722279 3615919 
580.951 3429058 3184963 2901043 2587109 2247722 1891860 1542707 1240087 
584.808 1031992 962117 1048831 1275311 1586203 1905804 2152344 2260478 
588.665 2201728 1987713 1667852 1310238 992869 780942 713365 798601 1014190 
593.004 1313562 1636920 1927403 2134829 2223609 2180449 2013877 1755405 
596.861 1448880 1145295 885880 696870 590054 563611 610028 718808 880036 
601.200 1081282 1304256 1524652 1710229 1829633 1861577 1801484 1666123 
605.057 1487745 1305486 1149481 1033984 955210 897268 841292 775166 700056 
609.396 627813 574327 551932 563577 601733 653231 704835 749973 792062 
613.735 841259 910948 1011466 1145063 1303625 1468728 1615236 1717781 
617.592 1753409 1709830 1587866 1404168 1187688 977127 813373 728300 741509 
621.931 854837 1054743 1314858 1603629 1890562 2144951 2338590 2442439 
625.788 2427511 2272136 1968308 1531900 1002832 447341 -56257 -436586 
629.644 -637560 -638354 -454957 -135828 257627 664182 1037073 1352481 
633.501 1604327 1797292 1938220 2029456 2067108 2044336 1955360 1800852 
637.358 1589329 1337425 1064807 793688 544733 334948 179524 89636 70249 
641.697 119265 225270 368474 522108 659603 760528 814900 827415 816062 
646.036 808327 831100 906498 1044413 1240087 1475144 1721939 1951866 2138558 
650.375 2266007 2328030 2328263 2276566 2187875 2077828 1959521 1842544 
654.232 1730887 1623417 1516206 1406096 1294486 1188685 1102342 1051189 
658.089 1048333 1097525 1189349 1301332 1405664 1473482 1486814 1442364 
661.946 1352149 1238425 1123968 1027574 955708 904805 864897 825457 778684 
666.285 722126 657379 590618 528544 475335 431685 400045 386912 403760 
670.624 461470 567957 723520 919282 1135329 1346798 1533563 1684151 1800286 
674.963 1891294 1966078 2025528 2060316 2055322 1998365 1889763 1748153 
678.820 1605990 1506032 1486182 1564687 1733150 1954295 2173755 2329595 
682.677 2377901 2303346 2130101 1915721 1740235 1679827 1777895 2031853 
686.534 2386596 2752967 3022443 3110770 2986076 2680048 2275700 1882209 
690.391 1601101 1490272 1559134 1771707 2072401 2407486 2748499 3095686 
694.248 3467599 3880482 4330702 4787353 5202967 5528464 5734058 5822570 
698.105 5827976 5804134 5801414 5856018 5976903 6149707 6347190 6543385 
701.962 6722337 6880256 7022068 7153956 7278168 7392001 7488874 7565336 
705.819 7624815 7679514 7746902 7844057 7983012 8167217 8391935 8648912 
709.676 8931441 9238150 9575493 9955677 10395274 10910127 11511120 12203073 
713.533 12983006 13842944 14771601 15759211 16800074 17891810 19033098 
716.908 20216930 21425788 22630446 23788156 24850712 25774646 26523780 
720.282 27077802 27430742 27589174 27568168 27388852 27076356 26655770 
723.657 26152852 25593014 24998412 24390846 23787106 23198814 22632052 
727.032 22087432 21564248 21064162 20593902 20165282 19791904 19481466 
730.407 19231266 19025378 18838794 18642086 18411866 18137336 17821690 
733.782 17480332 17133934 16804414 16509010 16262062 16078345 15970910 
737.156 15952416 16026841 16184054 16394859 16614616 16793668 16885668 
740.531 16864794 16730992 16509904 16240047 15962178 15705306 15479691 
743.906 15280449 15095260 14913716 14733174 14560006 14405229 14279305 
747.281 14186520 14123260 14079996 14044710 14004364 13947597 13866034 
750.656 13751518 13599286 13408457 13184545 12938798 12686333 12441686 
754.031 12213433 12001956 11800897 11601361 11396882 11187537 10978903 
757.405 10781035 10602304 10446624 10312782 10197265 10097615 10015146 
760.780 9954084 9919268 9911945 9927234 9953982 9978291 9989276 9981851 
764.637 9958356 9926014 9892928 9863778 9840120 9821410 9810260 9814226 
768.494 9845847 9915912 10028607 10173419 10325574 10447608 10501475 
771.869 10458707 10309355 10063907 9751227 9410158 9077342 8783154 8547049 
775.726 8376498 8270207 8220668 8218135 8249607 8301277 8359236 8409501 
779.583 8441089 8447542 8426663 8379605 8308741 8215029 8096895 7950951 
783.440 7774360 7566819 7332351 7079991 6822326 6574366 6349779 6159957 
787.297 6012983 5912375 5857832 5845506 5869015 5919395 5986208 6059147 
791.154 6129813 6194137 6253799 6315688 6387640 6475813 6578604 6685322 
795.010 6776485 6829764 6829865 6774062 6678088 6573222 6501946 6501341 
798.867 6592800 6771336 7007151 7250574 7447244 7557952 7567055 7490492 
802.724 7368679 7257548 7206136 7243667 7371814 7565572 7782388 7975553 
806.581 8112794 8182411 8197639 8188557 8193756 8245690 8359371 8529916 
810.438 8732779 8932523 9091045 9182037 9194830 9137266 9032109 8910843 
814.295 8804220 8733252 8706512 8718817 8756546 8801041 8835937 8850613 
818.152 8840434 8805977 8750325 8676020 8583040 8470009 8334039 8173565 
822.009 7990031 7789270 7580508 7376734 7190640 7032574 6907423 6813305 
825.866 6740812 6676103 6606559 6523573 6426377 6321773 6220455 6133610 
829.723 6066337 6017519 5979927 5944218 5902702 5852055 5793086 5728418 
833.580 5658657 5581590 5492759 5389118 5273393 5157029 5057859 4997356 
837.437 4991926 5048808 5163165 5321256 5503329 5689474 5864548 6017956 
841.294 6143725 6239110 6303821 6340903 6358925 6372643 6399610 6455500 
845.151 6547488 6669205 6800380 6912338 6978900 6983176 6926208 6823537 
849.008 6701844 6584592 6486239 6407781 6340702 6274002 6202271 6130451 
852.865 6072520 6044867 6057971 6110927 6190138 6274607 6341643 6376711 
856.721 6376476 6348199 6304762 6258774 6218304 6183449 6149875 6112372 
860.578 6069630 6027497 5999411 6003106 6058105 6177736 6364472 6606257 
864.435 6877765 7141897 7357659 7492245 7526395 7463861 7329858 7168508 
868.292 7026345 6940315 6926915 6977048 7058976 7127784 7142402 7074973 
872.149 6920384 6694879 6432800 6175652 5961282 5821764 5775021 5825794 
876.006 5966086 6178912 6438080 6711131 6964893 7167127 7293263 7333632 
879.863 7293566 7193806 7064803 6941898 6854167 6819195 6838179 6897492 
883.720 6971526 7030015 7048705 7012572 6921057 6786716 6633205 6486878 
887.577 6369953 6297668 6273968 6295013 6350889 6431825 6528316 6633205 
891.434 6740913 6844002 6932235 6994692 7018869 6996914 6927117 6815526 
895.291 6672906 6513112 6348737 6188054 6036703 5897999 5775726 5675576 
899.148 5605957 5575482 5591189 5655334 5763135 5902232 6055922 6203615 
903.005 6324127 6399980 6418138 6373315 6269800 6123394 5959435 5807358 
906.862 5696625 5646539 5661611 5728183 5819950 5904012 5951205 5947443 
910.719 5895850 5816458 5736308 5682088 5669164 5697229 5751719 5811387 
914.575 5855346 5870191 5854339 5815585 5768575 5727847 5705723 5709516 
918.432 5742351 5803765 5890577 5996824 6112674 6225597 6321672 6388447 
922.289 6418576 6412287 6377350 6326244 6274876 6237395 6222102 6231413 
926.146 6261261 6301064 6334885 6345207 6314074 6228354 6085792 5898033 
930.003 5692865 5508195 5387809 5368151 5467257 5680846 5982312 6331086 
933.860 6681420 6996611 7252629 7439086 7555659 7607314 7599728 7538263 
937.717 7431233 7291646 7137855 6992671 6874937 6794760 6749494 6725904 
941.574 6705949 6674555 6627452 6571607 6521387 6490477 6486206 6504939 
945.431 6535581 6564576 6584289 6596972 6613759 6648849 6713049 6807314 
949.288 6921428 7036919 7133645 7196670 7219983 7207113 7167396 7112695 
953.145 7052342 6991459 6931696 6872277 6811454 6747778 6680948 6612178 
957.002 6545807 6489434 6454861 6454289 6498448 6591320 6728394 6896111 
960.859 7074704 7244441 7388732 7498279 7570461 7607820 7613890 7591096 
964.716 7541027 7465783 7369690 7260950 7149375 7043620 6947924 6860530 
968.573 6775542 6685356 6586106 6478739 6368440 6262371 6167250 6085994 
972.429 6020442 5972805 5947812 5952448 5992994 6068992 6169838 6274338 
976.286 6357109 6394701 6376577 6308830 6214337 6121747 6055922 6027329 
980.143 6028909 6039425 6032739 5991617 5912308 5807223 5697330 5604850 
984.000 5542827 5512289 5504101 5506181 5510511 5517323 5534672 5573938 
987.857 5642108 5736778 5844365 5943076 6010665 6029278 5992054 5904381 
991.714 5782912 5650130 5530544 5446153 5410522 5427599 5489437 5579577 
995.571 5672890 5743056 5770153 5743358 5666646 5557728 5444274 5354230 
999.428 5310422 5323235 5388480 5489605 5603272 5708073 5788990 5842719 
1003.285 5875732 5902131 5936761 5989904 6063279 6149404 6233060 6296324 
1007.142 6325370 6313368 6265329 6194843 6122655 6068286 6044296 6053267 
1010.999 6086800 6129241 6162612 6174610 6162108 6132031 6098762 6080047 
1014.856 6090127 6135055 6210842 6303989 6395340 6462764 6488594 6460982 
1018.713 6376443 6240286 6065363 5868814 5667653 5477156 5308376 5167658 
1022.570 5060038 4990016 4962667 4983446 5055144 5174231 5328199 5496719 
1026.427 5653118 5773309 5844465 5871366 5878587 5903575 5990441 6172325 
1030.284 6460847 6839323 7266274 7681200 8019293 8231676 8290166 8196255 
1034.142 7975621 7674624 7344517 7030217 6763696 6556470 6401560 6279347 
1037.999 6166343 6043019 5900552 5743325 5587565 5455715 5367077 5333902 
1041.857 5356276 5422700 5514067 5612200 5704480 5788654 5871299 5964843 
1045.714 6080685 6222909 6385656 6552131 6701003 6808357 6857668 6842555 
1049.571 6770965 6662678 6549137 6465085 6438786 6487315 6609116 6783990 
1053.429 6976307 7144996 7256335 7291983 7256032 7171876 7074367 6995567 
1057.286 6955398 6954119 6975095 6989540 6970011 6900117 6778336 6617123 
1061.144 6437205 6259951 6100510 5966758 5861492 5785632 5742822 5738994 
1065.001 5778748 5860753 5974148 6098292 6206170 6271581 6277229 6217934 
1068.859 6102862 5951944 5791474 5644659 5528598 5450112 5405288 5382073 
1072.716 5363790 5335344 5286977 5218628 5141036 5073414 5036238 5045154 
1076.573 5103452 5199849 5310556 5407536 5469808 5489068 5474337 5445918 
1080.431 5429310 5442563 5490075 5561453 5636636 5693200 5713444 5689474 
1084.288 5620659 5510611 5362347 5177550 4956936 4705751 4437807 4175279 
1088.146 3945845 3776656 3683882 3670884 3725889 3828699 3954204 4079578 
1092.003 4188126 4268259 4314772 4327355 4310589 4273144 4226869 4185182 
1095.860 4156546 4142094 4133363 4116103 4073524 3996370 3887034 3760680 
1099.718 3638940 3542521 3482395 3455308 3445689 3432030 3397632 3335290 
1103.575 3251591 3161399 3084874 3039727 3036523 3081003 3173481 3311150 
1107.433 3487506 3691368 3904653 4102623 4260128 4354296 4373708 4322034 
1111.290 4218471 4092020 3971224 3879345 3827162 3815061 3837792 3890678 
1115.148 3972260 4085364 4231754 4407447 4598312 4781121 4925936 5005602 
1119.005 5003792 4919602 4768123 4575609 4374813 4194249 4057638 3979249 
1122.862 3964937 4013358 4117007 4264612 4439547 4622524 4794053 4935219 
1126.720 5034327 5087394 5100200 5084946 5057524 5032685 5019512 5021824 
1130.577 5037579 5062217 5090645 5119545 5147507 5173694 5197468 5216985 
1134.435 5229627 5233316 5227280 5212759 5192237 5168496 5143081 5116225 
1138.292 5087594 5058027 5030774 5012741 5011836 5035132 5085348 5158471 
1142.150 5244216 5329272 5402168 5457460 5498094 5534270 5581221 5652145 
1146.007 5754842 5889200 6047656 6217564 6384311 6536220 6664629 6765682 
1149.864 6839862 6891735 6927353 6953715 6977688 7003682 7033450 7065678 
1153.722 7097639 7126268 7150857 7173089 7197007 7226080 7260748 7296296 
1157.579 7323826 7332419 7313919 7266746 7197748 7121014 7051837 7002874 
1161.437 6978361 6973580 6976543 6973108 6953445 6913718 6858544 6797318 
1165.294 6741822 6700834 6679872 6679333 6696090 6724525 6757133 6785841 
1169.151 6802131 6798798 6771807 6720957 6650364 6566830 6477630 6386934 
1173.009 6295382 6200657 6100812 5997429 5897563 5812294 5754103 5730365 
1176.866 5739833 5770992 5806048 5826062 5816021 5770421 5693838 5599077 
1180.724 5501417 5416561 5356175 5327193 5332224 5369593 5432799 5510745 
1184.581 5589477 5653991 5691891 5699176 5679906 5646673 5614517 5596190 
1188.439 5595620 5607233 5616799 5608441 5570615 5500678 5406026 5301231 
1192.296 5204510 5130776 5090411 5088332 5124775 5196362 5297240 5419144 
1196.153 5549103 5673797 5779286 5854842 5895649 5903642 5886412 5853163 
1200.011 5811924 5766392 5717003 5662450 5603239 5542995 5489101 5450380 
1203.868 5433772 5442428 5475512 5529034 5598237 5678731 5766560 5857361 
1207.726 5945327 6022223 6079677 6110893 6113884 6092513 6054880 6011639 
1211.583 5971327 5937701 5910192 5885304 5859276 5830898 5802388 5778077 
1215.441 5762329 5757595 5763370 5777606 5797418 5820521 5845573 5871299 
1219.298 5895514 5914223 5922452 5915969 5893029 5855984 5810817 5764747 
1223.155 5725430 5697833 5683767 5682559 5692529 5711699 5737751 5768272 
1227.013 5799936 5829151 5851820 5865724 5871030 5870929 5869620 5871735 
1230.870 5878856 5891249 5906766 5923392 5940960 5960947 5985637 6016041 
1234.728 6050277 6083239 6108709 6121882 6121613 6112204 6100510 6093655 
1238.585 6095066 6102593 6109852 6110658 6102022 6088783 6081760 6096007 
1242.443 6143120 6228085 6344938 6479815 6613961 6730885 6821080 6883757 
1246.300 6925333 6954658 6979405 7002807 7024425 7042105 7054733 7065409 
1250.157 7080294 7106295 7147219 7201083 7259468 7307853 7330768 7317457 
1254.015 7263714 7174773 7062412 6943951 6834779 6747576 6688956 6659212 
1257.872 6655276 6672099 6705007 6750167 6804217 6864333 6927353 6990819 
1261.730 7054026 7118117 7185688 7258997 7338282 7419639 7495279 7555221 
1265.587 7590624 7596727 7574271 7530677 7477143 7425402 7384822 7360928 
1269.444 7355165 7366320 7393316 7435547 7493931 7568572 7657829 7756347 
1273.302 7856000 7947340 8021116 8071577 8096591 8099393 8085889 8064624 
1277.159 8043899 8031646 8034043 8055105 8096591 8157393 8232959 8316915 
1281.017 8400516 8476192 8538061 8583310 8612308 8627889 8633296 8630862 
1284.874 8621872 8605751 8581891 8551104 8515522 8480449 8453014 8440649 
1288.732 8450210 8486869 8552693 8646647 8764153 8898262 9039924 9179972 
1292.589 9311400 9429492 9533255 9625154 9708938 9788842 9868151 9948354 
1296.446 10030031 10113081 10197943 10285266 10374506 10463730 10547337 
1299.822 10617413 10665087 10683289 10669400 10626818 10564210 10494076 
1303.197 10427753 10374234 10337348 10316446 10307658 10306573 10310068 
1306.572 10316277 10324624 10333786 10341149 10342438 10332597 10307183 
1309.947 10264638 10206899 10139569 10070350 10008026 9959542 9927810 
1313.323 9911267 9903606 9895742 9878420 9844526 9790638 9717443 9629219 
1317.180 9532680 9436298 9347894 9274232 9220145 9188365 9178990 9190159 
1321.037 9217910 9256530 9300466 9344847 9387202 9427935 9469924 9516423 
1324.895 9568989 9625696 9680884 9726626 9756139 9766442 9761494 9751734 
1328.752 9750820 9773253 9828663 9919607 10040645 10181152 10328424 10470416 
1332.610 10599655 10712970 10810927 10895722 10970034 11035317 11092283 
1335.985 11141844 11185938 11227997 11274242 11332055 11409095 11512005 
1339.360 11644072 11803893 11985810 12181059 12380759 12575947 12759587 
1342.735 12924188 13063242 13171805 13247532 13291908 13311245 13315517 
1346.111 13315243 13320607 13338920 13374217 13427628 13497999 13583287 
1349.486 13680900 13787976 13901203 14016273 14128189 14231849 14322212 
1352.861 14397009 14456404 14504399 14548321 14598622 14666853 14763374 
1356.236 14896674 15070664 15284533 15532573 15805459 16093338 16388804 
1359.612 16693803 17023514 17410176 17897714 18535674 19356728 20355386 
1362.987 21478180 22637288 23742380 24723300 25545254 26198356 26689700 
1366.362 27039822 27284190 27478042 27690516 28002536 28482800 29170174 
1369.737 30071930 31168570 32434658 33854252 35436200 37210004 39207532 
1373.113 41430532 43811328 46195008 48378964 50168568 51444956 52173008 
1376.488 52362592 52032764 51193840 49856720 48057696 45880732 43455560 
1379.863 40918996 38395640 35968636 33678340 31541600 29561352 27734276 
1383.238 26049720 24483384 22997502 21544680 20081224 18581734 17055252 
1386.614 15548541 14134042 12876231 11805153 10908022 10150728 9497762 
1389.989 8924744 8419872 7976870 7589747 7247946 6938598 6650666 6380982 
1393.846 6136332 5929976 5772772 5663592 5588941 5531014 5476115 5420889 
1397.704 5370432 5333432 5315218 5313105 5317801 5318841 5310556 5293349 
1401.561 5272018 5252164 5237944 5232310 5239353 5265244 5319008 5407905 
1405.419 5531753 5678429 5826432 5952817 6038652 6076653 6071612 6038181 
1409.276 5994842 5958225 5939045 5939985 5960610 6001091 6064086 6153774 
1413.133 6269867 6404520 6540963 6658977 6742595 6786514 6799943 6805092 
1416.991 6831817 6906346 7041229 7226518 7434469 7633853 7809881 7966002 
1420.848 8114044 8263216 8418082 8581891 8762125 8973450 9235544 9562012 
1424.706 9951169 10383871 10834604 11282029 11721712 12166576 12645157 
1428.081 13192332 13836855 14590535 15444155 16374042 17356168 18375086 
1431.456 19422904 20491736 21568148 22631424 23663926 24664168 25654312 
1434.831 26689384 27849394 29212700 30792414 32503106 34192780 35734656 
1438.207 37089092 38294116 39420272 40540008 41705568 42942836 44250008 
1441.582 45607712 46988100 48365220 49723128 51053808 52353136 53620184 
1444.957 54856956 56072716 57286404 58524500 59809940 61147976 62519880 
1448.332 63887992 65218964 66505320 67769280 69052864 70397232 71823304 
1451.708 73316520 74827920 76295024 77654200 78869264 79930416 80843184 
1455.083 81613480 82235960 82697848 82995568 83175672 83324648 83500264 
1458.458 83697488 83862248 83939936 83893832 83715928 83416344 83009168 
1461.833 82497472 81864176 81067440 80049720 78759696 77184624 75368928 
1465.209 73388400 71300288 69113104 66787392 64283384 61590440 58742408 
1468.584 55791184 52793496 49778344 46712728 43520272 40108188 36446444 
1471.959 32662004 29063810 26003178 23654724 21953580 20693314 19658620 
1475.334 18716386 17812782 16954192 16166549 15464893 14836704 14251364 
1478.710 13675054 13087008 12485811 11889700 11325559 10818603 10379290 
1482.085 10000939 9665773 9355444 9059681 8775581 8503594 8242584 7986656 
1485.942 7725855 7450884 7158470 6855346 6559463 6296088 6089959 5958393 
1489.800 5903004 5909486 5952582 6006836 6052998 6077224 6070470 6026120 
1493.657 5939549 5809876 5641302 5444676 5235429 5030540 4841963 4672659 
1497.515 4519559 4380301 4258488 4161095 4094061 4056868 4041417 4034728 
1501.372 4022789 3995033 3945143 3869115 3762117 3613881 3406783 3114608 
1505.229 2708921 2185877 1609815 1139714 936581 1010470 1227925 1453701 
1509.087 1623816 1725166 1772738 1790472 1801717 1821115 1852526 1888066 
1512.944 1913858 1914190 1876519 1793665 1665258 1500546 1319079 1152538 
1516.802 1031859 972744 968161 996688 1033885 1059991 1064408 1045908 
1520.659 1015518 991440 989481 1007614 1027674 1027475 992835 920875 819481 
1524.999 705034 599477 524795 492485 500612 535544 581825 627216 665244 
1529.338 692987 707158 702578 672677 611587 519023 407972 308919 260810 
1533.678 290085 386945 513284 624793 692191 702844 654127 549477 396331 
1538.017 210816 16898 -148978 -250023 -271614 -242076 -214655 -227637 
1541.875 -289826 -385840 -487194 -557387 -561159 -475974 -302706 -71961 
1545.732 168983 373050 512222 574028 561885 490495 385586 279940 203556 
1550.072 173590 185059 218441 250466 266612 262931 245857 227425 220098 
1554.411 229281 249040 262567 247813 181347 39000 -199321 -529192 -870386 
1558.751 -1053212 -948320 -632564 -277574 12127 213601 338828 405949 433012 
1563.091 436793 432946 433277 444720 466479 491025 507976 509801 494342 
1567.430 466180 436893 423858 446909 517364 628676 757076 876716 969290 
1571.770 1027873 1053448 1049894 1023423 979651 926653 873562 829673 803149 
1576.109 797074 806966 825291 846736 870906 900555 938175 985430 1041956 
1580.449 1105830 1174133 1244274 1314825 1384556 1452172 1514810 1567680 
1584.307 1606090 1627408 1633029 1628339 1620956 1618129 1622885 1634559 
1588.164 1648528 1659105 1663029 1659803 1652020 1643339 1636055 1630069 
1592.021 1623883 1615967 1607853 1604327 1612242 1637818 1682986 1743196 
1595.879 1808039 1864705 1903142 1917951 1910696 1887800 1858017 1829700 
1599.736 1809603 1802516 1810934 1836122 1878449 1936356 2006553 2082555 
1603.594 2156173 2218447 2262476 2283793 2281029 2254783 2207690 2143586 
1607.451 2068206 1989477 1915888 1855421 1812963 1789606 1781954 1783485 
1611.308 1785980 1781721 1764355 1729723 1674771 1596845 1492832 1361455 
1615.166 1205796 1039000 886577 777158 727337 730225 763283 800526 823465 
1619.505 823232 796775 745592 673905 588925 500844 423095 369535 348975 
1623.845 360515 395071 439811 482666 514478 529539 525425 504924 475203 
1628.185 447042 430226 429496 443394 465716 487343 498953 492949 462266 
1632.524 401372 305238 171336 2518 -186338 -359289 -466574 -471076 -378854 
1636.864 -233730 -85146 35918 121188 175148 209954 238796 274005 321054 
1641.203 378224 436163 481704 501640 484756 423958 317075 166464 -18620 
1645.543 -215980 -388422 -492059 -497752 -414971 -284859 -153582 -50228 
1649.401 10834 23956 -13783 -106546 -259362 -471804 -714742 -909041 -955593 
1653.740 -836722 -633061 -425265 -246314 -97005 30517 143394 245625 336971 
1658.080 414638 474838 513582 528046 516800 480875 424654 357829 295921 
1662.419 255439 248410 274105 319131 363831 389366 383165 336606 245294 
1666.759 108693 -68813 -276581 -492787 -683679 -812018 -850148 -795614 
1670.616 -670909 -513373 -358594 -231710 -149243 -117079 -132780 -182927 
1674.474 -244228 -286514 -287144 -245652 -182497 -125327 -94057 -99788 
1678.331 -143711 -219391 -315288 -418645 -520455 -619231 -721192 -836458 
1682.189 -970669 -1115646 -1234970 -1263813 -1150611 -916017 -646890 -419671 
1686.046 -266349 -184119 -158948 -173653 -211078 -253103 -282475 -287607 
1689.903 -263799 -216510 -157358 -101941 -63943 -53640 -77096 -138411 
1693.761 -238400 -374882 -540212 -716760 -880538 -1014009 -1117662 -1206323 
1697.618 -1295825 -1392542 -1486298 -1547515 -1527936 -1390395 -1148760 
1700.994 -870386 -621911 -436056 -315122 -249328 -230286 -251811 -308202 
1704.851 -388753 -476471 -551430 -597558 -609966 -593323 -557883 -513803 
1708.708 -469222 -429337 -397161 -374981 -365049 -370578 -395407 -443041 
1712.566 -515028 -608974 -719241 -836590 -951362 -1057080 -1151371 -1233252 
1716.423 -1296915 -1324103 -1290408 -1180517 -1004852 -798425 -600768 
1719.798 -441849 -335187 -283468 -280720 -313401 -361209 -400207 -409575 
1723.656 -376570 -303136 -203461 -99854 -13651 38404 45893 7223 -73286 
1727.995 -185113 -315387 -448370 -571120 -676500 -766111 -849983 -941708 
1731.853 -1053873 -1189703 -1334343 -1446308 -1472495 -1383327 -1207183 
1735.228 -1007496 -839335 -727047 -673357 -671108 -708324 -769684 -837284 
1739.086 -895186 -934500 -957048 -972058 -990339 -1016389 -1047428 -1074763 
1742.943 -1087851 -1079721 -1050171 -1006835 -962503 -931061 -922564 -942005 
1746.800 -987827 -1053411 -1127478 -1196675 -1248913 -1273262 -1261302 
1750.176 -1207315 -1110028 -975231 -817078 -655393 -508607 -392063 -314129 
1754.033 -277110 -278402 -309891 -359256 -408251 -439466 -442478 -419208 
1757.891 -381437 -346046 -327605 -334524 -369188 -427020 -497189 -562748 
1761.748 -606095 -615393 -588922 -534421 -464919 -394877 -336114 -299229 
1765.605 -291547 -316778 -372531 -449561 -532865 -605764 -657312 -685234 
1769.463 -695191 -695555 -692578 -686921 -674515 -648677 -607882 -558247 
1773.320 -510957 -474385 -450389 -434468 -419208 -398982 -372697 -345450 
1777.178 -327340 -329492 -358428 -412720 -480839 -543985 -580848 -578466 
1781.035 -538624 -477993 -418480 -378590 -368658 -387760 -425265 -464290 
1784.892 -489114 -489544 -464721 -421591 -370876 -323102 -285587 -263335 
1788.750 -258567 -271978 -302772 -349059 -407423 -472896 -540477 -605731 
1792.607 -667336 -724765 -776828 -819856 -847966 -854844 -837780 -800112 
1796.465 -752616 -711401 -693967 -713386 -773983 -867807 -976058 -1074267 
1800.322 -1136863 -1147504 -1103418 -1015199 -900576 -779804 -670446 -584488 
1804.180 -528530 -503147 -502882 -517245 -532766 -536804 -520919 -484480 
1808.037 -435659 -389150 -359885 -357170 -380410 -418314 -453136 -468693 
1811.894 -458962 -430529 -398419 -379285 -385442 -419605 -475279 -538094 
1815.752 -592231 -623929 -626146 -600040 -552986 -494972 -435130 -381271 
1819.609 -339689 -316248 -317407 -348430 -411958 -504901 -619065 -739286 
1823.467 -846577 -924019 -961015 -960949 -940352 -924812 -937872 -993910 
1827.324 -1095817 -1233880 -1386663 -1518955 -1592744 -1576898 -1467377 
1830.699 -1288822 -1084183 -893798 -741866 -638553 -581642 -560531 -560895 
1834.557 -568605 -572642 -568042 -555401 -540146 -528067 -523467 -527173 
1838.414 -536903 -548585 -558512 -564038 -564270 -559505 -550934 -541403 
1842.272 -534983 -537929 -556196 -593687 -646526 -702635 -745174 -759595 
1846.129 -737864 -680900 -597922 -504173 -418115 -357435 -334458 -351741 
1849.986 -402325 -472201 -547195 -615095 -668593 -706174 -730256 -745538 
1853.844 -757181 -769022 -783013 -798822 -814994 -828289 -834903 -831431 
1857.701 -816284 -790653 -760224 -733464 -721821 -735416 -779441 -851901 
1861.559 -943691 -1039561 -1123545 -1183656 -1214055 -1215806 -1196411 
1864.934 -1167167 -1139606 -1122719 -1122521 -1140796 -1175692 -1220928 
1868.309 -1265828 -1295660 -1295726 -1255256 -1171297 -1048353 -896344 
1871.684 -731347 -569697 -427880 -318632 -247904 -215417 -216145 -243466 
1875.542 -290554 -351078 -419142 -485308 -538193 -566222 -560134 -518900 
1879.399 -451978 -378821 -321910 -300421 -322738 -383456 -465648 -546533 
1883.257 -606691 -634450 -629984 -602356 -565958 -531674 -504702 -483587 
1887.114 -463165 -437910 -405536 -368393 -333862 -310984 -308136 -330220 
1890.972 -378457 -450389 -540775 -642424 -745505 -837681 -907024 -944022 
1894.829 -946601 -922002 -885366 -853852 -839963 -848297 -875578 -912612 
1898.686 -947262 -970008 -975066 -961214 -931987 -893897 -856498 -830108 
1902.544 -826371 -854084 -915389 -1004191 -1104905 -1197237 -1258527 
1905.919 -1274055 -1240851 -1169612 -1078894 -990306 -918398 -865492 -822965 
1909.776 -778713 -724633 -664193 -611720 -586176 -605632 -678254 -800376 
1913.634 -958172 -1133360 -1306826 -1463778 -1594494 -1689461 -1737712 
1917.009 -1726558 -1647839 -1506903 -1327406 -1149058 -1009414 -938137 
1920.384 -948188 -1036983 -1186167 -1365921 -1541572 -1679130 -1757810 
1923.760 -1771604 -1727283 -1637672 -1516445 -1377085 -1233219 -1100047 
1927.135 -994934 -933475 -928053 -984323 -1099320 -1259551 -1443270 -1624237 
1930.992 -1774277 -1872008 -1905824 -1879399 -1811795 -1737547 -1696359 
1934.368 -1718736 -1818196 -1981856 -2174864 -2346893 -2451085 -2457082 
1937.743 -2361887 -2189436 -1980966 -1780612 -1617899 -1507464 -1445912 
1941.118 -1421077 -1417279 -1424083 -1440034 -1470217 -1521101 -1596079 
1944.493 -1693554 -1806614 -1923472 -2029020 -2105723 -2133849 -2096557 
1947.869 -1984396 -1802589 -1572969 -1329950 -1114357 -957247 -869560 
1951.244 -838475 -831431 -805966 -725856 -576613 -367996 -132714 88046 
1955.101 252786 334550 321917 220795 46125 -183788 -451117 -739187 -1031661 
1959.441 -1307090 -1543586 -1719033 -1822023 -1851388 -1822518 -1760252 
1962.816 -1695567 -1662165 -1686821 -1786321 -1965167 -2210864 -2496353 
1966.191 -2783728 -3035051 -3217724 -3318815 -3343048 -3311054 -3241272 
1969.567 -3143519 -3012840 -2838211 -2612861 -2346893 -2068132 -1818097 
1972.942 -1634570 -1532294 -1497459 -1492968 -1472594 -1397661 -1258296 
1976.317 -1072846 -880207 -717587 -608577 -556460 -553449 -589948 -663995 
1980.174 -784964 -962669 -1193470 -1457272 -1708208 -1893551 -1967113 
1983.550 -1909089 -1733125 -1483161 -1212767 -966636 -773653 -642325 -565825 
1987.407 -535050 -546070 -599941 -699459 -839037 -999662 -1147471 -1246600 
1991.265 -1272304 -1226181 -1137921 -1056782 -1030702 -1087620 -1230543 
1994.640 -1438647 -1680219 -1923967 -2149412 -2346234 -2508971 -2629493 
1998.015 -2692326 -2678430 -2573106 -2379847 -2128145 -1869765 -1675764 
2001.390 -1611561 -1716195 -1987200 -2377474 -2803350 -3167170 -3392529 
2004.766 -3433064 -3289713 -3006062 -2655773 -2311629 -2023908 -1810508 
2008.141 -1661042 -1556330 -1487454 -1466287 -1528266 -1713257 -2044883 
2011.516 -2514505 -3073217 -3641495 -4123377 -4436737 -4538134 -4432080 
2014.891 -4168143 -3823257 -3486940 -3228874 -3093417 -3084205 -3168650 
2018.266 -3283202 -3357087 -3329961 -3162993 -2852267 -2429900 -1962792 
2021.642 -1527440 -1190926 -989381 -916844 -933177 -983728 -1026669 -1046139 
2025.499 -1064054 -1125264 -1276268 -1541968 -1907539 -2318089 -2700592 
2028.874 -2978453 -3098253 -3045547 -2834459 -2499549 -2080267 -1619814 
2032.250 -1160095 -750003 -444133 -288700 -313103 -513472 -847801 -1239629 
2036.107 -1591292 -1816645 -1858053 -1705237 -1390593 -982571 -560994 
2039.482 -200149 41585 135837 88675 -63877 -266845 -456082 -575124 -591668 
2043.822 -502352 -337670 -151131 -7190 43175 -24187 -201905 -454890 -733498 
2048.161 -988686 -1190529 -1326481 -1400303 -1419030 -1386993 -1303159 
2051.537 -1165481 -980322 -766740 -555401 -386038 -293335 -300123 -408549 
2055.394 -602786 -849322 -1107318 -1338571 -1506474 -1583204 -1552764 
2058.769 -1412457 -1178600 -886887 -589584 -338100 -175574 -120193 -161862 
2062.627 -262805 -370048 -433839 -419340 -319923 -153880 39762 218375 345891 
2066.966 399747 375571 284383 149791 -662 -136027 -230319 -269660 -255355 
2071.306 -205846 -152919 -131687 -167294 -266448 -411925 -569267 -696184 
2075.163 -758206 -740279 -649339 -510262 -353131 -205316 -82462 13121 87648 
2079.503 149957 206739 260345 309350 350964 382966 402035 402732 377162 
2083.843 315683 210982 63191 -117709 -310951 -493019 -643714 -752749 -823163 
2088.182 -868700 -906627 -948518 -998736 -1051097 -1093635 -1112507 -1098295 
2092.040 -1046767 -957908 -834837 -683414 -513274 -338564 -179450 -57980 
2095.897 8117 10702 -43072 -131787 -224723 -295057 -326810 -321645 -295686 
2100.237 -272375 -272011 -301713 -353363 -407887 -444398 -447708 -416527 
2104.094 -362401 -306282 -269859 -268667 -307209 -380146 -473392 -569796 
2107.951 -655393 -720233 -761216 -782285 -791017 -796209 -804775 -818302 
2111.809 -832158 -837880 -824916 -786750 -724500 -648545 -575388 -525320 
2115.666 -513803 -546831 -620157 -720233 -827826 -925044 -998571 -1041015 
2119.524 -1050998 -1031198 -987761 -928945 -864666 -806329 -763531 -742495 
2123.381 -742395 -755097 -766674 -762407 -733001 -678882 -611819 -549511 
2127.239 -510990 -510428 -550934 -625980 -723012 -829149 -933111 -1028785 
2131.096 -1110491 -1171066 -1200805 -1186993 -1120042 -998604 -833911 
2134.471 -649008 -475676 -348397 -295256 -334260 -471440 -700881 -1006472 
2138.329 -1359381 -1721607 -2045081 -2280087 -2387525 -2350024 -2178952 
2141.704 -1913246 -1612849 -1340057 -1140862 -1037247 -1020355 -1060187 
2145.079 -1119249 -1170967 -1203217 -1220829 -1234805 -1253769 -1275277 
2148.454 -1286641 -1268769 -1206257 -1091322 -927887 -727510 -508243 -292243 
2152.312 -104624 21106 43142 -79050 -378126 -859639 -1491846 -2197216 
2156.169 -2876263 -3419914 -3735424 -3780591 -3566081 -3157828 -2646058 
2159.544 -2123034 -1651008 -1260740 -959263 -742395 -605863 -543985 -541205 
2163.402 -573668 -603150 -590841 -504934 -336379 -100417 160033 391887 
2167.259 549842 604619 555217 425948 257229 89769 -45093 -137186 -197665 
2171.599 -256050 -345119 -487095 -682753 -906098 -1111581 -1244122 -1262987 
2175.456 -1155601 -946898 -689038 -451514 -298832 -263998 -346576 -510990 
2179.314 -705281 -876636 -995199 -1056683 -1084910 -1114787 -1175494 
2182.689 -1277490 -1409584 -1540383 -1634735 -1667743 -1630344 -1530478 
2186.064 -1388149 -1221853 -1042536 -849619 -636535 -397592 -139405 116382 
2189.922 336838 481605 515938 423526 206772 -107109 -475941 -845684 -1167993 
2194.261 -1405621 -1537709 -1562207 -1493332 -1359579 -1197171 -1046899 
2197.636 -947262 -923754 -985909 -1120339 -1294900 -1459650 -1565145 
2201.012 -1574257 -1474543 -1283404 -1043825 -811786 -633292 -533891 -506258 
2204.869 -517510 -517212 -462073 -330287 -128474 110913 342177 520947 618423 
2209.209 626950 556677 425749 254544 59612 -147885 -355415 -549015 -714808 
2213.548 -841550 -925474 -975694 -1009050 -1042833 -1087256 -1137062 
2216.924 -1172553 -1165481 -1090297 -937244 -716925 -459028 -202335 14049 
2220.781 165237 241548 248874 199976 111046 -1954 -124864 -241744 -335187 
2225.121 -390276 -396499 -353363 -272276 -174548 -81733 -11298 31080 49902 
2229.460 55701 56994 54740 41982 7786 -53640 -137881 -229458 -305289 -343795 
2234.282 -334690 -281846 -202898 -120624 -54733 -13551 5168 13949 25580 
2238.622 47649 80059 116614 148896 172331 187778 200706 216319 236210 254378 
2243.443 259384 239028 184695 97226 -12160 -123141 -212469 -258766 -248599 
2247.783 -180708 -65269 76546 219634 337336 409099 424488 384690 301458 
2252.123 192982 78998 -26108 -114198 -184583 -239327 -279693 -302540 -299925 
2256.462 -261680 -182198 -63347 81815 232563 366484 465716 523137 544534 
2260.802 545894 545563 560160 597718 656151 725711 794086 850056 887672 
2265.141 907328 913903 915397 918850 929509 949200 976530 1006784 1034316 
2269.481 1053414 1059825 1052318 1033984 1010537 989415 976496 974039 978721 
2273.821 983138 978522 959162 925989 887838 858821 854837 886112 952222 
2278.160 1039730 1125928 1183602 1189183 1131974 1017146 866557 710776 
2282.018 584413 514246 513483 579370 696273 839997 985031 1111809 1210116 
2286.357 1279564 1326391 1360923 1392135 1424712 1459818 1494893 1526314 
2290.215 1550987 1566982 1574131 1571737 1558635 1532532 1491170 1434053 
2294.072 1363616 1286510 1212441 1153169 1118586 1114666 1141608 1194001 
2297.929 1262882 1337159 1406994 1465536 1508692 1534860 1545201 1542175 
2301.787 1529506 1513280 1501211 1502807 1527910 1583842 1672742 1790239 
2305.644 1925107 2060516 2177751 2261411 2302813 2301880 2268472 2219646 
2309.502 2174255 2149114 2155207 2193570 2257380 2331661 2400589 2449403 
2313.359 2469996 2462398 2435375 2402522 2378234 2374103 2395725 2441039 
2317.217 2502754 2572210 2642643 2712255 2784779 2867321 2966593 3084407 
2321.074 3214203 3343103 3454473 3532332 3568177 3562464 3525318 3471540 
2324.931 3418872 3382572 3373389 3397466 3456177 3545695 3658286 3782171 
2328.789 3903182 4005700 4076935 4109982 4106002 4074728 4033023 3999915 
2332.646 3991454 4017271 4078407 4168422 4274215 4380402 4472387 4537973 
2336.504 4570720 4571356 4547750 4512628 4482731 4474094 4495989 4548989 
2340.361 4622591 4698550 4753651 4768559 4732213 4644158 4513398 4353627 
2344.219 4178157 3996972 3815329 3637269 3467599 3314622 3188468 3098990 
2348.076 3054141 3057445 3107566 3197313 3315791 3447794 3575694 3685186 
2351.933 3767130 3821178 3855375 3884126 3922340 3981322 4066032 4174477 
2355.791 4299044 4429304 4555820 4670549 4767520 4842633 4891922 4911124 
2359.648 4899027 4856806 4791875 4715934 4645163 4592988 4567807 4568577 
2363.506 4584851 4599551 4595466 4560809 4494081 4403363 4301487 4202077 
2367.363 4112758 4032119 3952198 3862295 3754831 3628315 3489510 3351317 
2371.220 3229124 3135066 3076198 3052006 3055676 3073929 3091381 3092416 
2375.078 3062350 2992015 2877728 2723558 2539713 2341322 2145584 1966510 
2378.935 1814161 1692234 1598640 1528043 1474081 1431693 1397952 1371859 
2382.793 1353644 1343075 1339718 1342045 1348094 1356503 1365677 1374285 
2386.650 1380435 1381432 1374252 1356536 1328086 1290897 1250421 1213471 
2390.508 1186060 1172571 1173701 1186725 1206128 1225865 1240685 1247131 
2394.365 1244307 1232743 1214402 1191974 1167853 1145395 1127556 1117025 
2398.222 1115630 1123569 1139050 1158684 1178850 1195928 1208055 1215498 
2402.080 1220084 1224303 1230284 1239356 1250853 1263713 1276740 1289900 
2405.937 1304123 1321505 1343108 1368402 1394030 1413343 1418629 1403537 
2409.795 1365577 1308112 1240519 1176724 1130612 1111776 1123204 1158916 
2413.652 1206992 1252448 1283918 1296081 1291894 1279631 1270492 1272453 
2417.510 1287341 1310006 1330478 1338223 1326125 1293788 1247862 1199982 
2421.367 1162505 1145761 1154664 1188253 1240452 1301797 1363018 1415038 
2425.224 1451939 1470623 1471188 1455928 1428834 1394130 1354741 1312033 
2429.082 1265375 1213405 1155528 1093905 1033121 981212 946178 934025 946377 
2433.421 979684 1026113 1075768 1120314 1154730 1178352 1193469 1204102 
2437.279 1212940 1220648 1225234 1223772 1213837 1194665 1167820 1136259 
2441.136 1104701 1076864 1056669 1046805 1049429 1065505 1094370 1133303 
2444.994 1176824 1218190 1249889 1265574 1262749 1242579 1211013 1175927 
2448.851 1146358 1128818 1126492 1138086 1158950 1182405 1201543 1211345 
2452.708 1210016 1199118 1183103 1167920 1159614 1162006 1175761 1198885 
2456.566 1226862 1255206 1280727 1303525 1326258 1352248 1384423 1421454 
2460.423 1458688 1487313 1497919 1484387 1446154 1389409 1326324 1271423 
2464.281 1237362 1231049 1252780 1296314 1351451 1406994 1454332 1488277 
2468.138 1507162 1512017 1504801 1488244 1464339 1436447 1407825 1382263 
2471.996 1363084 1352248 1348958 1350155 1351850 1349191 1338721 1319345 
2475.853 1291927 1259094 1224602 1193270 1170179 1160478 1168850 1198154 
2479.710 1247962 1313230 1385254 1452205 1502341 1528209 1527511 1504669 
2483.568 1468429 1429399 1395792 1371360 1355007 1342477 1327986 1307148 
2487.425 1278302 1242413 1201975 1160112 1120779 1088025 1067431 1064840 
2491.283 1085003 1129183 1193469 1267867 1338621 1391670 1418728 1418961 
2495.140 1400545 1376778 1362552 1366873 1390772 1426208 1460649 1480697 
2498.998 1477472 1449179 1400811 1341014 1278933 1222443 1176857 1145528 
2502.855 1131741 1138319 1166757 1215897 1280927 1352880 1422152 1480597 
2506.712 1525948 1561927 1596512 1638982 1694695 1761593 1830565 1888232 
2510.570 1921645 1922511 1890795 1833560 1762824 1690338 1625612 1573499 
2514.427 1534461 1507195 1490172 1482858 1484753 1494295 1507428 1517170 
2518.285 1515441 1495425 1454332 1395094 1326856 1262450 1213837 1190911 
2522.142 1197290 1230617 1283652 1347628 1414540 1479134 1540014 1598042 
2526.000 1654514 1710429 1763989 1811832 1850031 1875021 1884838 1880279 
2529.857 1863208 1836421 1802882 1765120 1725398 1686778 1653284 1629171 
2533.714 1618827 1624049 1643938 1674172 1708932 1741999 1768879 1788409 
2537.572 1801385 1809769 1814627 1814594 1806575 1787278 1754807 1711028 
2541.429 1661832 1615435 1580084 1561229 1560663 1575694 1601667 1633627 
2545.287 1668750 1706371 1747321 1792002 1839249 1885936 1926804 1956758 
2549.144 1972468 1973334 1962117 1943412 1923942 1909831 1906569 1917319 
2553.001 1943345 1983619 2034050 2088448 2139624 2179849 2203560 2207956 
2556.859 2193736 2164831 2126971 2086950 2050528 2021999 2003990 1996734 
2560.716 1998864 2007619 2019369 2029889 2036447 2037578 2034116 2028690 
2564.574 2025128 2026793 2035814 2052692 2076529 2106594 2142487 2184212 
2568.431 2231435 2281861 2330361 2369972 2393127 2395525 2377834 2346951 
2572.289 2313173 2288390 2280829 2292520 2319569 2354680 2390494 2423280 
2576.146 2454734 2490290 2535781 2594675 2664546 2738796 2808089 2863686 
2580.003 2900209 2916354 2914352 2897341 2868856 2832068 2789948 2747399 
2583.861 2711188 2688383 2684849 2702953 2739529 2786914 2836104 2879029 
2587.718 2911684 2934734 2951948 2967827 2984441 3001090 3014636 3021475 
2591.576 3020174 3012267 3001990 2993950 2991214 2993516 2997887 2999822 
2595.433 2996218 2986310 2972431 2959253 2951547 2952281 2962489 2980738 
2599.291 3004726 3031752 3059814 3087243 3112539 3134465 3151520 3162834 
2603.148 3168608 3170143 3169509 3168842 3169643 3172246 3176619 3182860 
2607.005 3192273 3206592 3228256 3257600 3292720 3328345 3357595 3373155 
2610.863 3370784 3350282 3316192 3276195 3238905 3211533 3197513 3196512 
2614.720 3206092 3222214 3241976 3263609 3286878 3312018 3338863 3366577 
2618.578 3393558 3418137 3439177 3456310 3469870 3480124 3487439 3491480 
2622.435 3491915 3488942 3483731 3478955 3478120 3484633 3500699 3526654 
2626.292 3560293 3597376 3633092 3661928 3679839 3685019 3677299 3659222 
2630.150 3634696 3608936 3587186 3573422 3569681 3575694 3588456 3603524 
2634.007 3616320 3623603 3624339 3620463 3616287 3616587 3624606 3641579 
2637.865 3665804 3693607 3719973 3741061 3754731 3760880 3761315 3758340 
2641.722 3754296 3750386 3747378 3745774 3746342 3749918 3757906 3771007 
2645.580 3789357 3811785 3836722 3861827 3885496 3906459 3924246 3938890 
2649.437 3950994 3961426 3971257 3981824 3994565 4010349 4028842 4048206 
2653.294 4065263 4076333 4078407 4070548 4054694 4034895 4016870 4005600 
2657.152 4004028 4012054 4027270 4045865 4064360 4080581 4094562 4107273 
2661.009 4119783 4132895 4146176 4158720 4169291 4177420 4183275 4187223 
2664.867 4189464 4189397 4186353 4179394 4169091 4157449 4147815 4144168 
2668.724 4148952 4162701 4183208 4206527 4228375 4245606 4257384 4265147 
2672.582 4271973 4280505 4292519 4308013 4325147 4340876 4352422 4357208 
2676.439 4353727 4341445 4321398 4295698 4267857 4242260 4223322 4213787 
2680.296 4214255 4222118 4232657 4239483 4238111 4226167 4205289 4180030 
2684.154 4156546 4140422 4134735 4140020 4154037 4173272 4194315 4214356 
2688.011 4231921 4245940 4255610 4260128 4258588 4251060 4237910 4220813 
2691.869 4201408 4181402 4161630 4141927 4121790 4101085 4080213 4060614 
2695.726 4044192 4033123 4028875 4032119 4043156 4061584 4086869 4117842 
2699.583 4152096 4186018 4214824 4233259 4237843 4227605 4205423 4177120 
2703.441 4150457 4132293 4126907 4134702 4152866 4176083 4199267 4219341 
2707.298 4236037 4251294 4268627 4291448 4321532 4358045 4398710 4439782 
2711.156 4477241 4508477 4532449 4550429 4565597 4581904 4603268 4631867 
2715.013 4667368 4706454 4744507 4776297 4798241 4810000 4814958 4818711 
2718.871 4827221 4844543 4870879 4902713 4933644 4957841 4971548 4975034 
2722.728 4972621 4970811 4976073 4991758 5017802 5050048 5082700 5109252 
2726.585 5125009 5127993 5118438 5098121 5069559 5035098 4996618 4955562 
2730.443 4913503 4871851 4831744 4793517 4756901 4720824 4684315 4647072 
2734.300 4610067 4575508 4546210 4525016 4513365 4510954 4515608 4524246 
2738.158 4533788 4541590 4547047 4550730 4553978 4558465 4564994 4572763 
2742.015 4580163 4584650 4583779 4575944 4560876 4539647 4514570 4488189 
2745.873 4462813 4439849 4419764 4401890 4385188 4368888 4352522 4336726 
2749.730 4322737 4312263 4306841 4307243 4313233 4323708 4336626 4349510 
2753.587 4360253 4367014 4369156 4367416 4363902 4361391 4363165 4371532 
2757.445 4387096 4408451 4431748 4451900 4464486 4466462 4458327 4443430 
2761.302 4428066 4418660 4420434 4435497 4462344 4496357 4531746 4563689 
2765.160 4589405 4609363 4625739 4642349 4662109 4686458 4715063 4746784 
2769.017 4779815 4813451 4847123 4881401 4916653 4952847 4989178 5024607 
2772.875 5058295 5089706 5119411 5147943 5176075 5203974 5231371 5257932 
2776.732 5283824 5310187 5339571 5374223 5416527 5467492 5526719 5592398 
2780.589 5662484 5735267 5810111 5887117 5966523 6047992 6129947 6209397 
2784.447 6283011 6348065 6403343 6449682 6489401 6526096 6562659 6601278 
2788.304 6642491 6686433 6732870 6782240 6835924 6895842 6963816 7040623 
2792.162 7125797 7217018 7310684 7402382 7488267 7565740 7634190 7695129 
2796.019 7752873 7812648 7879989 7959489 8053620 8161579 8280270 8404570 
2799.876 8529072 8649588 8764153 8873304 8979370 9085428 9194490 9308794 
2803.734 9428815 9554628 9685491 9820428 9958424 10098599 10239431 10380105 
2807.591 10520180 10660809 10804405 10954741 11116417 11292503 11484480 
2810.967 11691145 11909247 12134138 12361089 12586691 12809066 13028005 
2814.342 13244389 13459753 13675943 13895729 14122952 14362623 14620142 
2817.717 14901097 15208416 15542360 15898762 16271247 16651660 17032854 
2821.092 17411176 17787446 18167014 18557806 18969612 19410222 19884438 
2824.468 20393898 20937090 21511636 22116336 22752320 23424244 24140078 
2827.843 24908360 25737976 26635480 27604566 28646252 29760266 30946702 
2831.218 32207392 33547170 34973216 36495020 38122368 39864344 41729092 
2834.593 43722388 45848732 48110368 50507772 53038312 55697004 58476580 
2837.969 61366900 64357856 67438616 70598344 73827096 77112720 80441336 
2841.344 83798024 87165592 90527480 93870272 97182832 100457880 103689784 
2844.719 106872336 109997536 113053640 116024360 118890832 121628440 
2847.612 124207752 126595112 128748936 130623592 132173416 133353832 
2850.505 134130256 134481840 134403664 133907408 133019744 131779816 
2853.398 130231752 128425224 126410128 124231040 121931592 119550552 
2856.291 117122408 114681824 112260968 109890832 107601432 105416952 
2859.184 103356888 101434296 99655208 98021752 96533192 95187648 93983304 
2862.560 92918120 91988200 91187488 90506592 89932592 89449272 89039736 
2865.935 88685368 88366984 88065640 87760520 87429560 87051808 86604888 
2869.310 86070192 85433280 84684696 83822336 82850272 81779848 80627792 
2872.685 79416400 78171920 76920632 75690736 74507344 73391928 72363440 
2876.061 71436224 70621464 69928240 69362672 68929304 68630592 68466552 
2879.436 68435048 68532152 68752192 69088672 69534792 70084624 70732816 
2882.811 71476232 72312328 73239800 74257160 75360928 76545192 77800784 
2886.186 79114400 80470680 81854336 83251760 84652808 86053232 87452784 
2889.562 88853944 90260568 91674832 93096592 94522856 95948080 97366016 
2892.937 98769704 100153328 101512864 102846648 104156160 105446104 
2895.830 106723528 107996144 109270584 110550184 111834160 113117432 
2898.723 114393392 115657064 116906936 118147064 119385824 120634680 
2901.616 121905088 123205752 124542992 125919912 127337752 128797024 
2904.509 130297096 131836144 133410680 135016176 136648000 138303840 
2907.402 139984496 141694496 143440816 145229488 147064016 148943440 
2910.295 150862128 152811888 154784256 156770704 158763056 160752480 
2913.188 162726864 164671440 166570160 168405472 170161344 171821680 
2916.081 173366640 174771536 176001664 177013120 177760656 178200480 
2918.974 178299584 178041040 177422416 176452608 175146144 173520352 
2921.867 171592416 169383296 166920336 164236976 161373632 158373520 
2924.760 155275648 152114640 148918176 145707536 142502240 139320512 
2927.654 136180240 133098424 130088584 127159296 124313792 121550448 
2930.547 118864912 116251912 113707472 111230088 108820992 106484200 
2933.440 104225776 102052176 99968888 97979360 96084392 94282496 92571528 
2936.815 90950472 89421056 87987680 86656456 85433448 84322600 83324088 
2940.190 82435056 81650784 80966744 80380168 79890432 79498600 79205048 
2943.565 79008672 78905104 78887976 78949048 79079616 79270064 79510336 
2946.941 79786776 80083264 80380008 80655080 80887776 81059976 81157624 
2950.316 81170760 81090808 80909168 80616864 80204328 79664392 78995432 
2953.691 78203304 77300488 76304744 75235256 74107792 72933720 71719024 
2957.066 70465120 69171624 67837920 66464664 65054468 63611904 62142456 
2960.442 60652772 59150188 57641284 56131948 54626712 53128656 51639184 
2963.817 50159640 48691048 47234612 45791692 44363612 42951360 41557036 
2967.192 40183488 38835760 37520632 36245596 35016244 33835164 32699584 
2970.567 31603388 30537604 29494430 28469710 27463922 26481482 25528458 
2973.943 24610232 23729152 22884672 22074846 21298402 20556590 19853498 
2977.318 19194588 18584434 18024070 17509758 17033164 16583599 16150868 
2980.693 15726365 15305709 14887827 14474526 14068462 13673446 13292489 
2984.068 12928591 12584883 12263498 11965272 11689136 11432191 11189712 
2987.444 10956475 10729102 10506261 10289099 10081202 9886691 9708905 
2990.819 9549513 9407618 9280223 9163423 9052644 8944395 8835937 8726559 
2994.676 8616093 8505926 8398488 8296313 8202096 8118365 8046227 7985543 
2998.534 7934686 7890112 7847126 7801549 7749500 7689059 7620803 7547062 
3002.391 7472424 7400730 7335418 7277528 7226080 7178243 7130883 7082281 
3006.249 7032440 6983244 6937689 6898401 6866185 6839593 6816132 6792404 
3010.106 6766759 6739466 6712612 6688923 6670383 6656083 6643399 6627755 
3013.963 6605147 6572650 6530098 6478672 6420257 6356571 6288054 6215245 
3017.821 6139222 6063313 5992423 5932864 5890039 5865992 5858570 5860955 
3021.678 5864615 5860317 5842014 5808097 5761288 5707603 5653991 5606259 
3025.536 5567796 5538699 5516618 5497927 5478263 5454306 5424512 5389084 
3029.393 5349768 5309818 5272723 5240761 5214604 5192975 5173191 5152570 
3033.250 5129737 5105128 5080856 5059200 5041434 5025813 5008182 4982877 
3037.108 4944267 4890247 4822363 4747454 4674066 4612243 4569147 4548252 
3040.965 4548654 4566066 4594026 4625270 4653736 4674635 4684248 4680999 
3044.823 4664789 4637393 4601962 4562885 4525049 4492273 4467533 4451765 
3048.680 4444334 4443229 4445774 4449489 4451933 4451498 4447213 4438476 
3052.538 4425957 4410392 4392585 4373005 4351284 4326452 4297438 4264377 
3056.395 4228943 4195018 4167719 4151394 4148149 4156579 4171499 4185249 
3060.252 4190167 4181435 4158319 4124432 4086301 4051550 4025264 4009713 
3064.110 4003192 4002390 4002825 4001487 3997373 3991087 3984733 3979583 
3067.967 3976474 3974333 3971324 3964536 3951462 3930665 3901444 3864836 
3071.825 3823251 3780232 3739123 3703097 3674259 3652172 3635231 3620764 
3075.682 3605795 3588623 3569012 3548501 3529426 3514729 3505810 3503038 
3079.540 3504574 3507113 3506612 3499130 3481928 3453739 3415232 3369883 
3083.397 3322168 3277563 3241175 3215805 3201686 3195911 3193708 3189736 
3087.254 3179756 3162600 3139705 3115376 3094018 3079635 3074229 3077199 
3091.112 3086710 3100325 3115643 3131361 3146780 3160965 3172747 3180724 
3094.969 3183327 3179956 3171946 3161866 3153055 3148316 3148483 3152321 
3098.827 3156025 3154423 3143109 3118746 3081137 3033187 2979604 2926628 
3102.684 2879896 2844241 2821763 2812592 2814960 2825565 2840940 2858249 
3106.542 2875993 2893605 2911751 2931265 2951581 2971197 2987044 2995618 
3110.399 2994350 2982640 2963157 2939971 2919122 2905980 2903778 2913652 
3114.256 2933500 2959921 2988111 3014702 3036290 3051272 3058913 3059147 
3118.114 3052606 3040794 3025880 3010198 2996819 2987878 2985109 2988845 
3121.971 2998554 3012434 3028582 3044131 3056644 3063518 3061849 3050337 
3125.829 3028682 2999054 2965959 2936369 2916854 2912551 2924493 2949479 
3129.686 2980071 3006728 3021609 3019907 3002191 2974132 2945175 2924059 
3133.543 2917655 2927495 2950546 2980905 3011332 3036056 3051639 3056877 
3137.401 3051872 3037558 3014335 2983007 2945542 2905313 2868122 2840740 
3141.258 2829700 2838171 2865887 2908281 2957319 3004426 3042696 3067989 
3145.116 3079769 3080302 3072728 3059914 3043430 3024111 3002057 2978403 
3148.973 2954850 2933767 2917455 2906981 2901610 2899675 2898708 2897040 
3152.831 2894139 2890769 2888235 2888235 2891070 2897007 2905746 2916787 
3156.688 2930064 2945309 2961855 2978069 2991247 2998954 2999255 2992515 
3160.545 2981405 2970629 2965092 2968328 2981439 3002424 3027081 3051405 
3164.403 3072494 3089413 3103162 3114608 3123552 3128057 3124820 3110270 
3168.260 3084140 3049303 3012534 2982707 2967794 2972331 2995985 3033454 
3172.118 3076298 3116677 3148049 3167273 3174750 3172246 3161766 3144611 
3175.975 3121483 3092549 3060314 3028048 3000622 2983040 2977569 2983707 
3179.833 2997053 3011633 3021309 3022610 3015536 3004126 2994350 2992515 
3183.690 3002057 3023144 3051405 3079368 3098589 3102194 3086409 3051839 
3187.547 3002825 2947644 2894872 2853713 2830868 2829267 2847743 2881130 
3191.405 2921391 2959020 2986076 2997019 2990280 2968161 2936102 2901477 
3195.262 2871191 2850978 2843908 2850545 2869089 2896407 2928996 2962990 
3199.120 2995718 3025112 3049003 3065487 3072361 3066654 3045866 3007929 
3202.977 2953215 2884432 2808390 2734028 2671647 2630343 2616075 2629143 
3206.834 2664679 2714322 2766672 2811491 2841440 2853380 2847977 2828433 
3210.692 2799652 2765638 2729527 2694185 2661546 2634376 2615909 2608175 
3214.549 2613308 2630743 2658312 2692484 2728760 2763571 2793750 2817394 
3218.407 2833369 2840906 2840139 2830901 2814493 2792716 2768073 2743097 
3222.264 2719957 2700452 2685549 2676181 2673447 2679081 2694718 2721191 
3226.122 2757369 2799486 2841340 2875960 2896407 2899109 2883999 2855281 
3229.979 2820029 2785480 2758236 2741397 2735028 2736429 2741897 2748132 
3233.836 2753134 2757069 2761670 2769207 2781378 2798619 2819362 2841006 
3237.694 2859817 2872525 2877261 2873992 2864686 2852613 2840740 2831234 
3241.551 2823664 2816460 2807022 2793416 2776376 2759270 2747732 2747565 
3245.409 2762604 2792616 2833269 2876027 2912017 2934501 2939671 2929497 
3249.266 2909382 2886800 2868422 2858483 2857783 2863986 2872791 2879696 
3253.124 2880429 2872691 2855548 2829333 2795917 2757936 2718490 2681882 
3256.981 2651744 2631043 2621509 2622642 2632476 2647844 2665579 2683549 
3260.838 2700486 2716790 2733328 2750333 2767773 2784112 2797051 2803988 
3264.696 2802554 2791115 2770240 2742364 2711355 2683182 2664012 2659012 
3268.553 2671514 2701219 2744031 2792516 2837938 2872191 2890336 2892004 
3272.411 2881730 2867321 2856849 2856448 2868255 2889002 2912284 2930764 
3276.268 2938971 2934367 2918656 2895940 2871257 2847743 2826298 2805622 
3280.125 2783779 2759703 2734861 2712855 2698452 2695285 2704720 2723558 
3283.983 2746632 2767239 2780044 2783712 2780678 2776009 2774775 2780478 
3287.840 2792282 2805021 2811525 2804555 2780411 2739863 2688683 2636210 
3291.698 2593009 2567343 2564943 2586776 2630409 2690917 2762371 2838105 
3295.555 2911517 2976268 3026747 3058713 3069824 3060681 3035322 2999321 
3299.413 2960154 2925193 2899909 2888368 2891537 2908181 2934634 2966760 
3303.270 2998721 3025179 3041562 3045199 3035789 3015803 2990447 2965725 
3307.127 2947978 2941339 2947244 2964057 2987244 3011533 3031919 3044999 
3310.985 3050371 3049036 3043864 3037825 3033721 3033053 3036123 3042796 
3314.842 3052406 3064018 3077099 3090981 3104663 3117078 3126656 3131628 
3318.700 3129926 3120715 3103629 3080436 3053774 3027748 3006962 2994517 
3322.557 2992048 2998921 3011766 3025479 3035222 3036290 3026714 3006795 
3326.415 2979570 2949746 2921758 2899375 2884465 2876260 2872558 2870390 
3330.272 2866754 2860517 2851879 2843107 2837771 2838905 2848944 2868222 
3334.129 2895272 2926895 2959220 2988478 3011533 3026847 3034021 3033053 
3337.987 3025279 3011833 2995018 2977636 2963223 2955317 2956551 2967861 
3341.844 2987944 3013234 3039560 3063017 3081270 3094518 3103962 3111571 
3345.702 3118146 3122684 3122885 3116210 3101960 3082405 3061849 3046500 
3349.559 3040928 3047001 3061449 3077900 3088578 3086977 3071593 3045432 
3353.417 3016437 2993516 2984575 2993483 3019073 3055910 3096154 3132529 
3357.274 3158796 3171645 3170511 3156125 3130794 3097922 3062016 3028115 
3361.131 3001357 2985742 2982707 2990580 3004793 3020007 3030918 3035256 
3364.989 3033387 3028883 3025880 3027381 3034288 3044331 3053808 3059513 
3368.846 3060314 3057778 3055810 3058079 3066821 3081237 3097088 3108735 
3372.704 3110403 3098490 3072661 3035789 2993216 2950647 2913252 2885033 
3376.561 2868522 2864686 2873759 2894505 2924727 2960254 2995985 3025946 
3380.418 3045032 3050404 3041996 3023210 2999889 2979304 2968194 2971063 
3384.276 2990146 3024211 3069758 3120949 3172046 3216540 3248753 3264043 
3388.133 3259569 3234566 3190437 3131962 3065653 2999955 2944475 2906547 
3391.991 2891337 2898742 2923692 2956618 2985876 3001357 2996919 2972665 
3395.848 2934901 2895239 2866721 2859217 2877027 2916954 2968961 3019907 
3399.706 3058513 3077533 3076966 3062650 3044131 3031151 3030050 3042596 
3403.563 3065753 3093951 3121016 3142308 3155925 3162267 3162333 3157694 
3407.420 3150085 3140539 3131695 3127323 3131361 3147748 3178454 3222248 
3411.278 3274525 3328545 3376728 3412760 3432798 3436104 3423881 3398601 
3415.135 3362436 3317460 3264911 3206693 3145279 3084040 3027781 2979804 
3418.993 2943307 2919690 2908748 2909349 2919823 2938570 2963991 2994750 
3422.850 3028716 3062784 3094418 3120148 3137636 3146213 3146146 3139171 
3426.708 3127223 3112539 3097054 3082105 3068423 3056744 3046767 3038225 
3430.565 3030184 3021776 3012534 3003091 2995785 2994250 3002658 3024011 
3434.422 3059013 3104897 3155425 3202287 3237770 3256298 3256865 3242544 
3438.280 3220178 3197647 3181592 3175717 3179990 3191205 3204556 3215271 
3442.137 3219444 3215538 3203488 3184629 3160364 3132863 3104930 3079702 
3445.995 3061282 3053641 3058746 3076165 3102027 3130260 3153923 3168375 
3449.852 3171579 3165137 3153456 3141741 3134132 3132196 3134165 3135300 
3453.709 3130727 3116911 3093250 3063384 3033988 3011466 3002057 3008730 
3457.567 3030417 3062583 3098556 3131862 3156693 3170277 3172180 3165371 
3461.424 3154490 3144945 3141374 3146614 3160197 3178922 3198047 3211666 
3465.282 3215605 3208395 3192240 3171979 3154891 3147848 3155091 3177320 
3469.139 3211666 3252592 3293822 3329480 3356192 3372955 3381069 3383173 
3472.997 3382238 3380969 3380568 3382038 3384943 3388182 3390486 3390586 
3476.854 3386446 3376428 3358797 3332719 3298262 3257466 3214069 3173648 
3480.711 3142909 3127890 3132496 3157193 3198214 3248352 3298262 3339363 
3484.569 3365809 3375092 3369048 3352953 3334622 3321033 3317227 3324872 
3488.426 3341801 3362971 3382205 3393993 3394026 3380134 3352252 3311784 
3492.284 3261372 3204823 3147047 3093450 3049970 3021976 3012434 3022577 
3496.141 3049603 3088445 3131662 3171345 3200751 3215305 3213168 3195244 
3499.999 3165805 3130260 3095619 3068890 3055676 3058913 3077867 3109102 
3503.856 3146480 3183795 3216106 3239740 3252659 3253627 3241976 3217708 
3507.713 3182393 3138871 3092583 3050538 3019440 3004693 3007662 3026847 
3511.571 3058446 3097955 3141607 3187233 3233764 3280368 3325774 3367378 
3515.428 3402107 3427421 3442083 3447326 3446758 3444354 3442517 3440647 
3519.286 3433700 3414363 3374324 3308579 3217608 3109068 2996018 2895306 
3523.143 2821329 2780944 2772441 2786113 2809057 2828966 2838572 2836404 
3527.000 2826065 2813359 2803921 2801120 2805855 2817394 2835503 2860851 
3530.858 2895072 2938971 2990447 3043430 3089112 3117144 3119247 3092716 
3534.715 3042096 2980271 2924493 2893571 2900776 2949412 3032553 3136101 
3538.573 3242277 3333420 3396430 3423013 3410055 3359197 3275894 3167941 
3542.430 3043998 2914019 2788348 2677748 2593075 2544013 2537547 2576576 
3546.288 2658012 2772508 2904479 3036223 3148716 3226521 3259703 3245248 
3550.145 3187900 3099925 3001090 2913518 2856782 2842307 2869689 2928463 
3554.002 3003292 3080336 3149450 3205324 3246516 3273557 3287512 3289115 
3557.860 3279733 3261405 3238104 3215138 3197046 3187500 3185898 3188267 
3561.717 3187233 3173682 3138937 3075097 2976334 2839672 2667113 2467963 
3565.575 2263476 2088715 1983619 1979691 2082056 2265474 2487091 2705554 
3569.432 2893538 3037591 3136167 3195210 3224151 3232563 3228757 3219077 
3573.290 3207227 3196045 3188067 3185430 3189703 3201051 3216840 3233197 
3577.147 3246049 3252492 3252725 3249220 3245682 3245148 3247952 3251591 
3581.004 3251824 3245481 3230560 3207828 3178554 3143410 3100025 3043397 
3584.862 2966826 2866121 2745131 2620509 2520317 2476794 2508686 2610042 
3588.719 2753667 2906580 3042830 3147214 3215939 3252258 3262607 3253794 
3592.577 3231962 3201385 3165204 3126923 3090614 3060415 3039727 3029016 
3596.434 3025913 3025513 3023044 3016104 3006061 2997987 3000622 3023511 
3600.292 3072261 3148015 3244680 3351317 3454273 3540918 3601319 3629016 
3604.149 3621298 3578266 3503739 3404178 3290083 3174883 3072561 2994584 
3608.006 2945709 2921558 2910249 2898074 2875059 2836937 2786513 2732661 
3611.864 2688383 2667380 2680582 2730227 2808590 2899342 2984708 3050704 
3615.721 3088412 3094685 3071159 3024945 2967260 2913785 2881597 2883365 
3619.579 2922892 2994017 3084874 3182159 3274826 3356393 3422245 3470071 
3623.436 3498161 3504474 3486905 3442517 3367913 3258801 3112072 2928196 
3627.293 2717223 2509152 2355613 2309109 2388462 2559611 2762304 2946843 
3631.151 3090347 3188167 3247852 3282838 3309280 3341033 3386145 3444253 
3635.008 3507714 3566507 3611843 3639642 3650668 3649264 3640176 3626878 
3638.866 3609471 3586218 3555148 3517368 3478855 3449797 3440613 3457346 
3642.723 3497292 3548801 3592298 3605127 3566273 3458347 3270553 3001490 
3646.581 2664679 2289323 1918583 1604460 1394728 1324729 1409354 1636222 
3650.438 1965612 2339889 2704020 3016871 3257399 3421377 3512791 3543423 
3654.295 3530161 3497092 3471273 3476550 3523814 3604125 3694776 3772912 
3658.153 3826460 3854640 3866173 3872959 3886833 3913981 3954137 4000784 
3662.010 4045564 4080983 4103527 4114330 4116605 4113360 4103995 4083525 
3665.868 4043189 3973130 3863699 3708745 3508783 3275894 3035389 2827699 
3669.725 2695685 2662346 2716456 2821696 2939871 3041228 3108101 3131395 
3673.583 3105364 3030651 2920657 2809790 2742264 2746798 2818828 2935501 
3677.440 3075664 3227922 3387715 3552075 3715428 3869349 4003426 4109714 
3681.297 4183844 4225698 4238044 4225363 4192342 4142763 4078909 4001620 
3685.155 3910504 3805668 3688160 3561997 3435837 3322402 3235934 3187967 
3689.012 3182593 3214937 3276595 3359164 3457346 3566440 3681844 3797279 
3692.870 3907328 4007406 4095031 4169826 4232423 4282915 4320294 4341779 
3696.727 4343352 4322268 4277695 4211746 4129182 4038173 3947985 3870385 
3700.584 3817835 3800253 3822381 3880649 3964570 4059912 4152732 4233259 
3704.442 4293891 4330702 4341779 4326686 4286529 4222653 4137378 4032889 
3708.299 3912076 3780032 3644553 3517234 3412994 3345674 3323804 3346509 
3712.157 3404078 3481527 3565638 3646692 3718302 3776322 3817133 3836956 
3716.014 3834081 3808944 3766362 3715596 3669380 3639541 3633326 3651904 
3719.872 3690031 3738020 3784510 3819808 3836588 3831106 3802694 3753761 
3723.729 3689496 3618659 3555282 3516065 3517635 3569380 3666907 3790928 
3727.586 3913246 4008609 4058473 4054761 3997875 3894790 3756502 3594904 
3731.444 3423080 3250355 3081070 2916687 2760003 2620575 2518750 2480526 
3735.301 2525782 2651711 2829900 3018773 3186498 3318629 3414697 3482095 
3739.159 3530128 3566741 3596240 3620430 3638539 3648496 3647327 3632057 
3743.016 3600149 3552677 3497025 3446491 3414029 3402274 3404846 3410857 
3746.874 3410222 3392657 3348613 3270553 3155592 3011766 2859217 2731060 
3750.731 2659379 2663913 2744164 2880630 3044365 3207694 3352386 3467866 
3754.588 3550672 3601385 3622301 3617589 3592966 3557220 3521075 3495622 
3758.446 3491514 3515463 3568478 3644720 3733341 3820443 3893854 3945878 
3762.303 3971892 3971692 3947517 3904553 3850929 3796710 3751322 3719606 
3766.161 3700156 3687024 3673624 3656014 3635064 3617556 3614449 3637503 
3770.018 3692771 3778427 3885229 4000651 4114096 4218304 4308515 4381941 
3773.875 4435932 4469240 4480890 4471115 4441689 4394962 4334651 4265481 
3777.733 4193111 4125804 4072755 4041149 4033256 4044293 4064226 4081050 
3781.590 4085765 4073290 4044025 4003593 3961694 3930932 3921370 3938255 
3785.448 3979650 4038674 4106503 4175915 4242662 4304733 4361592 4412300 
3789.305 4455347 4488423 4510050 4519056 4515809 4501982 4478881 4446476 
3793.163 4404300 4350949 4285592 4210240 4130688 4055698 3994798 3952733 
3797.020 3925717 3902213 3868179 3811017 3723349 3605829 3470238 3342802 
3800.877 3258668 3249454 3319497 3441682 3575260 3689897 3771442 3818504 
3804.735 3837825 3841970 3847954 3873093 3930665 4020983 4129818 4236605 
3808.592 4324343 4384452 4415178 4420534 4407045 4381574 4350146 4315341 
3812.450 4276490 4229914 4171098 4096971 4009044 3916087 3832744 3773681 
3816.307 3743134 3731670 3721444 3694810 3641212 3557353 3450165 3336993 
3820.165 3250689 3228557 3292954 3431796 3606664 3777291 3917425 4018676 
3824.022 4081752 4112959 4121188 4118277 4116337 4124432 4145807 4176016 
3827.879 4205289 4222787 4220579 4196089 4152732 4098777 4045765 4005098 
3831.737 3982025 3974835 3975604 3974066 3961794 3934610 3892584 3837925 
3835.594 3773581 3701259 3622601 3539682 3458682 3390520 3347678 3339798 
3839.452 3368480 3426286 3500566 3578500 3651938 3718436 3781569 3849157 
3843.309 3929027 4024896 4134400 4249287 4358412 4450326 4515976 4550027 
3847.167 4549860 4515072 4447414 4349577 4224058 4073156 3898234 3699655 
3851.024 3480625 3252425 3040794 2893105 2861851 2966593 3168441 3400003 
3854.881 3611241 3784544 3924981 4043992 4150926 4249220 4335922 4403698 
3858.739 4444033 4449891 4418894 4353359 4262035 4156646 4050915 3957213 
3862.596 3883658 3835752 3816699 3828766 3871288 3937720 4015699 4088040 
3866.454 4138582 4155408 4130654 4062955 3959621 3841168 3737619 3679304 
3870.311 3676898 3716765 3772010 3821546 3856712 3881418 3907696 3951128 
3874.168 4022053 4119348 4229981 4335622 4421204 4476003 4495453 4479350 
3878.026 4431246 4359249 4275319 4197126 4140990 4116404 4119716 4136943 
3881.883 4149688 4144001 4113728 4061885 4000751 3950292 3936182 3978045 
3885.741 4077237 4212683 4353292 4471918 4553074 4593222 4594394 4562282 
3889.598 4504660 4432317 4359718 4301520 4270501 4272408 4304833 4359216 
3893.456 4425321 4492406 4550898 4593725 4614621 4609129 4574537 4509816 
3897.313 4416685 4300383 4170596 4040213 3923276 3831641 3771074 3739892 
3901.170 3730668 3734778 3744938 3758641 3778360 3810950 3863465 3939826 
3905.028 4039009 4155475 4281610 4409823 4533219 4645129 4739649 4811374 
3908.885 4856505 4873325 4864044 4834290 4792076 4746048 4703607 4669042 
3912.743 4642316 4620782 4600522 4578723 4554313 4528766 4505229 4487552 
3916.600 4478179 4477543 4484338 4497395 4515440 4538342 4564794 4592117 
3920.458 4615090 4626810 4620481 4591849 4540819 4472889 4397840 4330702 
3924.315 4285391 4271036 4288370 4330300 4385757 4442560 4492406 4529637 
3928.172 4551367 4556724 4546176 4521166 4484740 4441957 4399882 4366780 
3932.030 4351184 4358714 4390778 4444100 4512126 4586626 4660635 4728662 
3935.887 4787553 4835262 4870745 4893028 4900803 4892492 4866925 4824206 
3939.745 4766750 4700258 4632939 4575977 4540585 4534859 4560675 4612109 
3943.602 4677716 4743435 4798140 4834860 4850239 4844610 4819783 4778843 
3947.459 4726016 4666899 4608928 4560474 4529837 4523576 4543967 4589539 
3951.317 4654172 4728796 4802563 4866959 4915514 4945742 4959382 4961225 
3955.174 4957305 4953450 4954724 4963605 4980162 5002049 5025411 5045758 
3959.032 5058195 5060206 5051222 5033422 5011501 4991892 4980028 4979056 
3962.889 4988038 5003087 5018104 5027087 5026450 5015691 4997255 4975738 
3966.747 4955495 4939944 4929656 4923288 4918496 4913972 4909147 4905461 
3970.604 4904992 4908879 4915849 4922719 4925098 4919033 4903416 4881166 
3974.461 4858281 4843404 4843839 4863876 4902914 4956064 5015154 5071603 
3978.319 5118673 5152939 5174197 5185027 5189052 5189957 5190158 5190896 
3982.176 5192472 5195020 5198340 5202297 5207126 5212558 5217521 5220640 
3986.034 5220606 5216146 5206992 5193880 5178288 5162863 5150022 5142008 
3989.891 5140466 5145294 5155286 5168228 5181305 5191935 5198407 5199849 
3993.749 5197066 5191499 5184558 5178187 5173425 5170643 5169804 5170542 
3997.606 5172822 5176611 5181976 5189588 5200017 5213866 5231204 
##END=
