##TITLE=lb_2 Sep 02 12:03:24 2026 (GMT+02:00)
##JCAMP-DX=5.01  $$ Nicolet v. 970
##DATATYPE=INFRARED SPECTRUM
##ORIGIN=Vojna akademija
##OWNER=Nicolet
##LONGDATE=2026/09/02
##TIME=12:03:54
##SPECTROMETER/DATA SYSTEM=Nicolet iS20
##DATA PROCESSING=
Ratio against background
%Transmittance->Absorbance
Truncated
ElementMultiply or ElementDivide
##COMMENTS=
Number of sample scans: 8
Collection length: 11,90 sec
Sample gain: 8,0
Background collected on: Wed Sep 02 11:53:24 2026 (GMT+02:00);
Number of background scans: 8
Background gain: 8,0
Sample spacing:  1,000
Number of scan points: 12415
Resolution points: 8286
Number of FFT points: 65536
Apodization: N-B strong;
Phase correction: Mertz;
Laser frequency: 15798,00 cm-1
Number of rejected sample scans: 0
Number of rejected background scans: 0
Bench serial number: BER2010005;
##RESOLUTION= 4,000
##XUNITS=1/CM
##YUNITS=ABSORBANCE
##FIRSTX=400.156891
##LASTX=4000.123047
##FIRSTY=0.013489
##MAXX=4000.123047
##MINX=400.156891
##MAXY=0.154403
##MINY=-0.001864
##XFACTOR=1.000000
##YFACTOR=1.000000E-009
##NPOINTS=7468
##DELTAX=0.482117
##ZPD=6100
##XYDATA=(X++(Y..Y))
400.157 13489249 14249858 14487064 14064561 13032443 11616846 10106569 
403.532 8781430 7809207 7227293 6964018 6893957 6907962 6959203 7069922 
407.389 7293903 7657728 8123834 8577903 8864309 8847772 8458421 7724573 
411.246 6752759 5703775 4742832 4018141 3643852 3675829 4114632 4913001 
415.103 6004484 7304046 8721014 10159377 11483357 12524960 13105516 13123957 
418.959 12662281 11990885 11422735 11135352 11164757 11447976 11887418 
422.334 12354543 12703937 12796611 12516706 11836171 10839224 9715850 
425.709 8686736 7948893 7625456 7733107 8193756 8850579 9524416 10041798 
429.566 10291779 10247879 9965272 9556762 9151816 8860318 8725341 8718513 
433.423 8750393 8713543 8512312 8107191 7536846 6918634 6406403 6123596 
437.280 6117345 6333910 6641078 6864839 6851475 6496968 5782106 4780049 
441.137 3654644 2626776 1909465 1673241 1979891 2772041 3886733 5119276 
444.994 6264354 7145063 7653445 7750579 7483683 6969910 6370995 5834391 
448.851 5442328 5202364 5056183 4921177 4728561 4471584 4223189 4124533 
452.708 4318587 4893498 5827405 6996140 8193993 9193475 9801245 9878387 
456.565 9397731 8467508 7347853 6359496 5784188 5767063 6292794 7241544 
460.421 8444636 9727507 10903264 11801817 12303684 12364123 12040209 
463.796 11469613 10833007 10282823 9918895 9760071 9750040 9772135 9698604 
467.653 9444662 8995100 8414636 7814975 7327566 7054598 7049143 7302664 
471.510 7750511 8283107 8777948 9146132 9347488 9397461 9341191 9228606 
475.367 9094563 8956639 8822951 8701610 8607171 8558472 8567528 8626063 
479.224 8694376 8706918 8578072 8230089 7623365 6777696 5781535 4772914 
483.081 3921637 3373857 3229358 3517000 4189197 5133425 6203918 7267116 
486.938 8210268 8958906 9475208 9744788 9781894 9621494 9322944 8949739 
490.795 8562932 8204426 7890989 7620297 7383306 7180298 7027826 6954153 
494.652 6982570 7113705 7313245 7511427 7618038 7562301 7319041 6929676 
498.509 6486508 6111364 5916036 5964339 6260018 6738322 7290703 7792778 
502.366 8159148 8363628 8434872 8424501 8376126 8304114 8190312 7996613 
506.223 7687102 7249563 6707497 6118521 5557124 5098490 4793450 4664922 
510.079 4707091 4891588 5169335 5480109 5766224 5980497 6102123 6140028 
513.936 6132366 6132333 6195011 6364036 6654401 7048469 7498414 7944810 
517.793 8326473 8595207 8721353 8689339 8498763 8164449 7720897 7223014 
521.650 6742158 6363531 6159419 6179148 6426546 6855581 7367769 7835386 
525.507 8142740 8208005 8016390 7614733 7091409 6535817 6018796 5586524 
529.364 5261521 5057289 4983815 5046663 5242572 5552492 5942404 6363229 
533.221 6764100 7101513 7344247 7477615 7500774 7420515 7246834 6990718 
537.078 6669306 6309435 5954732 5661779 5486652 5476384 5649593 5989702 
540.935 6443293 6932538 7366219 7655401 7738908 7588027 7218062 6681251 
544.792 6068757 5491215 5056854 4853992 4920072 5233518 5714686 6255749 
548.649 6741653 7077903 7216647 7159649 6953883 6667961 6374493 6125041 
552.506 5942774 5825760 5755614 5708543 5662618 5605085 5531417 5444442 
556.363 5351848 5265210 5198977 5167826 5186369 5263701 5402235 5595720 
560.220 5830864 6089220 6349376 6592565 6803612 6973311 7099121 7184644 
564.077 7237569 7266173 7279044 7280324 7268970 7239489 7185722 7105723 
567.934 7006141 6903012 6817647 6769114 6762484 6785807 6810747 6803780 
571.790 6736908 6601984 6414002 6208220 6024171 5890846 5814141 5772503 
575.647 5722811 5618007 5431289 5165848 4859051 4566367 4348975 4250424 
579.504 4287466 4445774 4684114 4945809 5173492 5329205 5396431 5382442 
583.361 5309785 5211083 5119612 5062686 5060105 5118639 5233585 5390091 
587.218 5567326 5742251 5893096 6005760 6074670 6103265 6101417 6080954 
591.075 6050310 6009086 5948853 5855514 5715962 5523665 5283522 5012506 
594.932 4736501 4482497 4275319 4130286 4052587 4040046 4089445 4199836 
598.789 4373407 4610736 4902981 5224899 5538968 5797787 5959065 5998336 
602.646 5913215 5724490 5469036 5191063 4929019 4708263 4541221 4429873 
606.503 4372302 4366144 4408718 4493478 4606483 4728026 4835463 4912632 
610.360 4957170 4983916 5020148 5096847 5237207 5446488 5709516 5995245 
614.217 6268691 6497742 6662443 6758412 6792875 6780591 6736841 6676036 
618.074 6608746 6542510 6481901 6427655 6374997 6314478 6235076 6127427 
621.931 5990542 5833484 5675744 5541686 5451655 5416191 5430450 5474740 
625.788 5518631 5532659 5493027 5390024 5229393 5032081 4829868 4658291 
629.644 4552271 4536031 4616529 4780652 4998864 5234088 5450514 5628580 
633.501 5767299 5882583 5996119 6122991 6258673 6378157 6442149 6415314 
637.358 6283381 6063952 5803664 5566790 5416158 5388883 5488263 5681014 
641.215 5913148 6121210 6254202 6284759 6209161 6044935 5823308 5584410 
645.072 5367077 5208232 5136744 5165714 5289559 5480612 5694778 5875699 
648.929 5974484 5963164 5843390 5646807 5425149 5236972 5127088 5117868 
652.786 5203571 5356041 5531081 5684371 5783852 5812462 5772839 5683364 
656.643 5573367 5472559 5405791 5386937 5415957 5479773 5556285 5622304 
660.500 5658019 5653722 5610757 5541216 5463298 5396565 5359093 5362045 
664.357 5409582 5499470 5625392 5774450 5923560 6038081 6066606 5964238 
668.214 5730399 5431625 5158438 4970040 4880597 4876743 4935219 5032752 
672.071 5147842 5259710 5349902 5405892 5421861 5400155 5349164 5283355 
675.928 5219030 5170743 5148781 5156493 5188682 5234960 5283355 5323503 
679.785 5348695 5358054 5354732 5344334 5333063 5327226 5331721 5350506 
683.642 5385998 5437295 5501282 5572696 5648452 5729761 5823846 5940422 
687.498 6086632 6258640 6437609 6590042 6679939 6681789 6594785 6447530 
691.355 6295752 6205834 6229698 6390666 6674589 7037659 7423077 7784817 
695.212 8102836 8385888 8659559 8949198 9260049 9572004 9843068 10027997 
699.069 10101177 10066213 9958660 9828359 9725168 9677293 9687423 9737638 
702.926 9804024 9869336 9932285 10004940 10106026 10248218 10432132 10646173 
706.783 10874623 11107069 11344536 11600238 11893990 12245025 12663612 
710.158 13149980 13695160 14286119 14909121 15551529 16202386 16850224 
713.533 17485506 18104622 18715660 19340306 20011304 20765776 21628810 
716.908 22607162 23681420 24813136 25947634 27028856 28009392 28848746 
720.282 29515494 29984514 30236654 30265960 30085528 29733298 29261468 
723.657 28731592 28197484 27691506 27224672 26788262 26363978 25934690 
727.032 25491280 25034914 24572504 24110728 23654652 23206852 22770268 
730.407 22352018 21962224 21610806 21303866 21038180 20803036 20582092 
733.782 20361464 20136438 19913646 19708752 19541700 19429314 19378348 
737.156 19384826 19434894 19509744 19587348 19647318 19670858 19640730 
740.531 19544576 19376164 19140948 18855126 18546566 18249250 17995198 
743.906 17810920 17712098 17701744 17771152 17903584 18077298 18266148 
747.281 18443670 18582566 18655750 18642570 18530072 18316396 18010634 
750.656 17631654 17203530 16751550 16301554 15875254 15489511 15155025 
754.031 14875243 14646941 14460618 14304644 14166288 14035676 13908182 
757.405 13784009 13667360 13563629 13477560 13410439 13361881 13329797 
760.780 13312646 13311416 13328773 13367622 13428687 13508903 13599183 
764.155 13685824 13753125 13787703 13780760 13731170 13645272 13536419 
767.530 13420383 13313193 13226080 13162890 13119040 13083388 13042242 
770.905 12983416 12901762 12801559 12696330 12604223 12541636 12518275 
774.279 12531780 12566840 12597538 12596924 12540443 12415841 12225531 
777.654 11987105 11727260 11475736 11259722 11096396 10990966 10938703 
781.029 10928475 10947199 10983762 11031001 11083513 11135828 11180396 
784.404 11206406 11200694 11152247 11052922 10901702 10703767 10470111 
787.779 10213989 9950117 9694335 9461527 9268918 9132901 9064993 9068849 
791.636 9135676 9245089 9367666 9475580 9547854 9577220 9571259 9548125 
795.493 9528819 9528548 9554018 9602762 9668280 9745534 9835747 9945744 
799.350 10084763 10257955 10461931 10683425 10903910 11103058 11267236 
802.724 11392563 11485977 11560355 11630255 11706428 11793680 11890824 
806.099 11991873 12089164 12175471 12244617 12294583 12327783 12352191 
809.474 12379498 12424809 12500200 12611318 12754263 12916542 13079905 
812.849 13225840 13342234 13425100 13477560 13505553 13512355 13494444 
816.224 13443178 13346813 13198105 12997892 12758051 12497029 12237255 
819.598 11999912 11800727 11649586 11549093 11495129 11474648 11467299 
822.973 11448929 11393073 11281655 11109075 10886344 10636903 10391032 
826.348 10174606 9999481 9862896 9750582 9647445 9546093 9452350 9382529 
830.205 9356493 9385441 9465286 9574375 9682375 9758512 9783928 9758749 
834.062 9700129 9634368 9587145 9576645 9609807 9684103 9791892 9924420 
837.919 10071876 10221113 10353738 10444859 10467023 10400739 10241738 
841.294 10008161 9737943 9483775 9295896 9209077 9234529 9356460 9538234 
845.151 9733063 9902759 10023114 10091308 10121288 10137839 10164566 
848.525 10215447 10290389 10376135 10451104 10492446 10484843 10423986 
851.900 10317464 10180678 10030981 9882623 9742179 9611704 9491226 9383951 
855.757 9299112 9249319 9246950 9297148 9394108 9519742 9647716 9753734 
859.614 9820767 9845983 9839950 9821648 9809006 9811955 9829612 9852016 
863.471 9865811 9861473 9838391 9805719 9779285 9774202 9801245 9862422 
867.328 9951880 10057905 10168399 10273696 10367651 10447710 10512745 
870.703 10562445 10596667 10615206 10619925 10613373 10600165 10583596 
874.078 10566077 10545708 10518278 10476832 10415670 10332190 10230102 
877.452 10119999 10017146 9939100 9900725 9908319 9958763 10040103 10136042 
881.309 10229831 10311730 10380003 10440785 10502935 10573207 10650519 
884.684 10725740 10784261 10812285 10804234 10767753 10722445 10694699 
888.059 10710932 10786300 10920389 11093914 11275602 11426851 11511937 
891.434 11508160 11408414 11223848 10979072 10710967 10457044 10248658 
894.809 10105687 10030506 10009382 10015654 10020097 9995413 9925573 9808430 
898.666 9656152 9489398 9331069 9201902 9114459 9072301 9070846 9100451 
902.523 9148568 9202952 9254668 9297961 9331577 9357915 9382732 9413205 
906.379 9455533 9513477 9586773 9670245 9754445 9827681 9878929 9897912 
910.236 9879133 9821478 9729201 9611230 9481473 9356460 9251858 9181292 
914.093 9150937 9159532 9198010 9253517 9311874 9361809 9398375 9421230 
917.950 9434097 9441005 9443884 9442157 9433217 9415677 9391468 9366786 
921.807 9351889 9356696 9388421 9448489 9530919 9623257 9709514 9775761 
925.664 9811481 9814734 9791892 9758004 9732047 9733809 9779489 9876014 
929.521 10020300 10199809 10396496 10589911 10762556 10904487 11010949 
932.896 11082799 11122604 11131884 11110230 11056322 10970543 10857772 
936.271 10728797 10598128 10481142 10390252 10332021 10305963 10304741 
939.646 10317871 10333718 10341828 10335754 10313630 10278344 10236717 
943.020 10198046 10170502 10158020 10157579 10159411 10149472 10114199 
946.395 10048003 9957407 9862625 9790570 9768814 9814734 9928420 10091173 
950.252 10270100 10429857 10539427 10583223 10563395 10496893 10408306 
953.627 10323368 10263382 10240449 10258531 10313970 10397345 10494720 
957.002 10588858 10663967 10706382 10710491 10680810 10632285 10585328 
960.377 10561290 10575482 10631097 10719627 10823088 10921850 10998919 
963.751 11046261 11065362 11064717 11055302 11045751 11039973 11035827 
967.126 11026923 11004696 10961674 10893955 10802196 10691880 10573342 
970.501 10459589 10362425 10291610 10250694 10236954 10241738 10253374 
973.876 10260262 10253577 10229695 10189633 10137059 10076759 10012331 
977.251 9946015 9878420 9810498 9743805 9681155 9625696 9579964 9545313 
981.108 9521571 9507617 9501792 9502436 9508057 9516931 9526889 9535525 
984.964 9541520 9544467 9546465 9551004 9562045 9581184 9606826 9633386 
988.821 9651781 9652222 9627660 9574884 9496915 9401591 9301211 9208468 
992.678 9136420 9095578 9092093 9127453 9197570 9294102 9404131 9513916 
996.535 9611636 9688879 9743060 9777150 9797721 9811379 9822665 9832053 
1000.392 9836934 9833510 9818970 9793857 9762443 9731539 9708905 9701145 
1004.249 9712258 9742518 9789316 9847712 9911267 9972832 10025929 10065738 
1008.106 10090291 10101109 10103517 10104466 10109723 10122543 10141502 
1011.481 10162327 10179694 10191837 10201810 10218195 10250864 10306912 
1014.856 10384653 10472725 10549883 10592831 10583155 10513832 10391677 
1018.231 10236615 10076013 9935099 9833510 9780268 9774032 9805685 9862557 
1022.087 9930218 9993752 10038509 10050852 10019723 9941303 9820360 9671872 
1025.945 9516728 9379279 9280596 9233581 9244615 9315293 9447033 9645242 
1029.802 9916759 10264468 10677618 11127227 11563044 11922223 12149812 
1033.177 12209855 12102418 11863139 11557123 11257103 11020227 10877069 
1036.553 10822102 10822884 10832191 10810349 10734298 10605291 10444248 
1039.928 10284213 10157274 10084865 10075063 10121492 10206424 10303349 
1043.303 10385128 10427346 10413228 10339961 10219620 10079303 9952422 
1046.678 9873607 9865575 9932556 10058651 10213785 10363579 10476934 
1050.054 10537391 10543162 10505821 10442449 10371519 10307658 10260533 
1053.429 10236242 10237769 10264706 10312002 10369686 10424902 10463798 
1056.804 10478936 10470926 10450901 10435389 10440684 10476730 10543026 
1060.179 10630010 10724619 10815580 10896503 10964970 11019173 11051087 
1063.555 11047043 10988316 10859845 10659586 10403351 10124409 9862422 
1066.930 9655236 9523942 9469010 9471245 9501420 9529158 9532613 9503486 
1070.787 9447507 9378974 9315902 9276737 9276094 9321894 9414560 9544399 
1074.645 9692641 9832765 9938523 9989208 9976968 9908691 9804465 9689489 
1078.502 9584232 9499895 9436604 9386660 9342139 9299654 9262554 9237981 
1082.359 9230400 9237338 9248643 9251215 9233411 9192866 9136183 9076564 
1086.217 9026628 8991954 8969730 8951566 8929885 8903301 8880101 8872121 
1090.074 8889266 8930629 8981873 9019862 9022974 8979506 8895794 8793197 
1093.932 8701137 8642558 8625286 8638468 8659424 8662162 8630119 8563676 
1097.789 8478692 8399502 8346773 8331945 8350894 8388693 8424839 8443453 
1101.647 8437440 8410076 8371566 8335221 8312829 8311579 8332992 8374369 
1105.504 8429365 8489133 8543872 8583918 8601289 8592165 8557221 8502817 
1109.361 8438285 8374876 8322217 8286552 8269971 8270916 8284762 8305601 
1113.219 8327284 8344779 8354880 8357649 8356568 8358460 8370958 8400786 
1117.076 8450683 8517279 8592469 8664934 8725883 8770611 8801108 8824034 
1120.934 8848042 8877802 8912873 8947236 8972639 8981704 8973112 8950483 
1124.791 8922242 8895421 8873439 8853420 8829072 8793636 8745220 8689306 
1128.649 8638063 8607069 8608150 8646106 8715605 8804253 8896402 8979776 
1132.506 9049193 9106982 9160344 9217335 9283202 9356967 9432642 9500437 
1136.363 9551308 9577187 9574748 9544162 9489398 9417336 9338008 9264586 
1140.221 9211007 9191208 9215338 9285741 9395700 9529462 9667569 9789859 
1144.078 9883030 9942964 9974629 9988767 9997685 10010399 10029692 10053327 
1147.936 10076013 10093444 10104873 10113589 10124748 10144046 10173623 
1151.311 10211885 10254087 10294562 10327949 10351159 10362900 10363273 
1154.686 10352957 10332971 10305555 10275189 10247573 10230339 10229220 
1158.061 10246826 10280821 10325099 10371587 10413160 10445673 10468889 
1161.437 10484571 10494516 10498658 10494856 10480464 10455211 10422662 
1164.812 10390456 10368092 10362900 10376474 10403962 10436000 10461694 
1168.187 10473064 10467634 10447846 10417741 10379901 10332496 10269727 
1171.562 10185257 10075912 9944896 9802500 9663368 9540098 9440396 9363942 
1175.420 9303986 9250978 9197401 9141530 9087323 9042460 9013773 9004233 
1179.277 9010728 9025410 9038164 9041919 9033631 9015667 8992935 8970880 
1183.135 8952039 8935364 8916222 8889875 8853453 8808108 8759589 8717093 
1186.992 8690759 8687480 8709588 8753030 8809054 8865864 8912771 8942501 
1190.849 8953359 8948590 8935770 8923966 8919773 8927687 8947981 8978186 
1194.707 9014990 9054910 9095613 9135033 9171478 9203188 9227997 9244886 
1198.564 9254803 9260355 9265905 9274875 9288144 9302294 9309945 9302124 
1202.422 9271592 9216489 9141868 9059140 8983633 8928701 8902760 8905940 
1206.279 8932185 8968884 9002779 9025105 9032074 9027102 9018306 9016479 
1210.137 9030620 9065162 9118553 9183729 9248710 9300263 9327717 9324027 
1213.994 9289532 9230501 9158652 9088034 9031297 8997873 8992122 9012149 
1217.851 9051054 9099470 9146876 9183628 9203561 9204068 9186876 9156724 
1221.709 9121735 9089624 9067496 9058971 9063640 9077105 9092364 9102380 
1225.566 9101636 9088507 9065026 9035593 9005079 8976731 8951701 8929276 
1229.424 8908239 8889030 8874589 8870599 8883551 8917810 8973417 9044558 
1233.281 9120855 9188839 9236965 9258425 9252908 9227083 9191344 9157975 
1237.139 9135676 9129382 9138281 9158145 9182138 9204779 9222040 9232464 
1240.996 9236864 9237033 9234969 9232802 9231719 9232802 9236120 9241163 
1244.853 9246375 9250098 9250470 9247289 9242347 9239809 9244682 9261877 
1248.711 9293932 9340378 9398443 9463897 9533425 9606623 9684374 9768102 
1252.568 9857202 9946151 10026369 10086357 10116472 10112572 10078286 
1255.943 10023928 9963984 9912590 9878149 9862896 9863778 9876285 9896488 
1259.801 9924319 9961950 10011077 10069943 10132683 10189972 10234478 
1263.176 10262874 10278379 10288285 10300635 10319535 10342540 10361508 
1266.551 10367244 10354451 10325370 10291067 10267216 10271525 10314920 
1269.927 10400399 10520892 10663661 10811232 10947232 11059619 11140280 
1273.302 11185836 11196954 11178629 11138989 11089801 11043814 11011867 
1276.677 11000074 11007754 11028656 11052514 11070291 11077191 11073995 
1280.052 11065838 11059380 11059890 11068693 11084532 11104655 11128552 
1283.428 11157959 11196138 11245576 11305188 11369093 11428552 11474648 
1286.803 11502954 11515680 11522722 11536094 11567740 11623209 11700335 
1290.178 11790548 11881561 11963160 12028218 12075570 12108074 12132537 
1293.553 12156729 12188965 12236948 12307093 12403534 12526153 12670026 
1296.929 12824764 12976212 13110980 13218326 13293377 13337588 13357064 
1300.304 13359148 13350674 13336016 13317669 13297204 13277936 13263690 
1303.679 13259966 13269941 13293035 13323921 13352826 13368374 13360002 
1307.054 13322041 13254876 13166033 13067373 12973174 12896574 12845275 
1310.430 12820737 12816983 12822239 12820021 12795587 12739660 12652184 
1313.805 12542830 12428321 12327852 12255795 12218579 12214080 12232210 
1317.180 12259101 12282141 12294174 12293901 12286027 12276416 12270383 
1320.555 12269224 12271132 12272633 12271064 12265679 12258044 12251092 
1323.931 12248400 12252216 12263941 12283642 12310705 12344077 12381543 
1327.306 12420751 12457985 12489971 12514796 12533451 12549958 12570115 
1330.681 12600402 12645395 12705131 12776921 12855276 12935214 13013665 
1334.056 13090832 13169107 13251563 13339672 13433506 13531292 13631630 
1337.432 13734555 13842705 13959230 14086499 14221954 14359540 14490045 
1340.807 14607257 14709010 14799609 14886010 14976269 15075740 15185563 
1344.182 15302346 15419332 15529345 15626127 15707161 15773470 15828757 
1347.557 15878588 15928734 15984626 16049979 16126348 16212016 16302379 
1350.932 16389698 16465645 16522810 16557300 16569760 16566215 16557094 
1354.308 16554408 16571585 16620364 16709676 16845608 17030648 17263552 
1357.683 17538876 17848342 18182146 18533254 18902398 19301890 19758372 
1361.058 20305632 20976350 21783186 22703580 23677432 24626750 25483234 
1364.433 26205572 26784210 27230988 27569048 27827244 28042544 28262120 
1367.809 28537642 28925310 29468684 30189624 31087840 32149446 33361972 
1371.184 34726352 36265584 38016500 40007248 42225484 44579628 46890824 
1374.559 48944908 50550580 51607916 52107660 52088684 51594408 50652808 
1377.934 49286204 47531384 45463836 43198444 40857468 38552724 36358708 
1381.310 34307508 32405418 30642482 29003870 27472216 26026924 24642742 
1384.685 23291410 21947064 20595396 19242660 17918396 16666533 15526907 
1388.060 14519370 13637339 12861316 12171756 11555320 11006157 10521945 
1391.435 10100600 9738248 9430272 9173677 8967802 8811387 8698568 8617073 
1395.293 8548265 8478523 8406056 8342348 8306749 8316780 8376936 8471462 
1399.150 8564994 8618425 8609063 8538804 8429805 8311849 8212935 8149796 
1403.008 8127379 8139870 8175929 8224247 8278717 8338633 8405042 8476159 
1406.865 8546509 8609570 8661824 8705802 8749311 8802157 8869956 8951059 
1410.723 9035762 9111144 9168094 9205321 9229993 9252028 9277989 9307101 
1414.580 9332761 9346913 9347387 9343696 9358321 9423973 9571869 9816022 
1418.437 10135635 10475644 10768875 10975607 11099183 11172033 11233709 
1421.813 11317431 11448827 11644038 11909009 12237084 12608658 12995126 
1425.188 13370663 13722859 14055457 14387522 14747639 15169848 15684281 
1428.563 16308915 17042572 17866536 18752192 19672868 20609676 21550008 
1431.938 22481910 23394030 24275588 25126956 25967894 26843174 27822760 
1435.314 28986726 30388684 31997938 33683140 35272580 36653656 37817128 
1438.689 38828192 39771704 40724292 41735296 42826720 43996164 45228184 
1442.064 46502392 47799176 49103856 50401412 51674116 52905836 54085288 
1445.439 55215424 56316892 57425292 58576408 59788380 61050836 62327456 
1448.815 63580252 64794408 65985808 67191744 68449872 69777008 71155256 
1452.190 72533272 73850232 75050776 76112704 77046008 77882680 78656784 
1455.565 79386760 80055816 80603696 80959240 81094920 81044088 80865784 
1458.940 80599032 80260688 79859728 79409360 78927432 78430920 77922168 
1462.316 77382408 76765576 76004256 75023208 73770896 72247560 70495208 
1465.691 68565056 66483348 64238824 61814016 59210184 56466148 53637392 
1469.066 50790592 47975652 45193952 42412968 39578168 36663644 33724536 
1472.441 30921082 28445794 26396052 24741258 23368400 22156674 21033382 
1475.817 19974182 18991524 18107384 17332858 16657822 16059367 15512450 
1479.192 15001168 14519645 14069763 13653170 13265637 12895447 12530041 
1482.567 12162250 11795995 11442806 11118797 10836472 10600199 10405320 
1485.942 10240178 10091919 9951812 9819784 9702466 9608351 9540098 9489533 
1489.800 9439346 9372440 9277888 9155167 9009037 8844594 8665610 8475246 
1493.657 8279967 8090312 7922572 7797332 7730712 7724540 7760091 7805260 
1497.515 7827121 7809241 7752704 7668790 7569416 7461468 7345326 7219039 
1501.372 7081642 6935938 6786817 6641246 6506251 6387202 6290508 6226841 
1505.229 6215144 6282238 6444503 6668869 6857534 6919340 6833332 6639160 
1509.087 6389556 6129409 5890208 5689608 5534706 5419144 5327360 5240728 
1512.944 5146669 5042808 4938101 4847693 4788759 4772110 4795058 4835798 
1516.802 4861531 4846185 4784036 4690679 4593189 4523242 4508544 4569280 
1520.659 4704847 4882507 5039322 5118069 5101843 5011735 4884752 4755729 
1524.516 4652832 4593021 4580531 4604440 4642751 4669109 4664420 4623227 
1528.374 4550563 4456653 4350447 4239081 4126841 4018876 3925917 3865404 
1532.231 3861593 3934978 4082755 4265682 4422409 4507840 4509146 4440819 
1536.089 4327489 4196323 4070648 3970822 3915185 3918027 3986439 4113929 
1539.946 4280807 4457624 4617903 4744406 4827924 4864915 4857208 4811642 
1543.804 4739247 4652363 4560273 4467198 4372269 4274850 4176852 4086033 
1547.661 4014395 3974100 3974166 4010582 4064928 4107273 4112959 4073725 
1551.518 3998744 3906258 3815930 3741229 3684350 3635465 3577431 3495756 
1555.376 3385978 3257332 3130294 3041996 3047735 3226387 3641145 4233494 
1559.233 4774656 5064631 5104290 4996551 4832079 4661439 4513566 4402961 
1563.091 4335588 4307711 4303395 4294861 4251294 4154037 4004730 3827195 
1566.948 3656181 3534905 3505209 3594603 3801423 4081317 4359584 4565697 
1570.806 4671219 4685453 4635785 4547214 4438342 4322469 4211713 4123763 
1574.663 4082822 4111955 4218705 4376453 4530172 4625772 4645096 4603871 
1578.520 4533587 4463449 4414007 4392819 4395799 4410693 4424216 4428835 
1582.378 4426191 4425622 4438677 4472655 4526891 4592988 4659196 4716972 
1586.235 4762864 4799044 4829499 4856337 4877212 4886796 4879893 4855198 
1590.093 4816868 4774555 4738678 4718011 4717776 4739582 4782930 4846218 
1593.950 4927243 5021590 5120785 5212391 5281611 5316761 5313105 5274601 
1597.807 5210982 5134699 5056820 4984217 4920943 4870745 4838311 4831375 
1601.665 4857275 4918698 5009355 5113744 5209440 5274366 5296368 5275137 
1605.522 5222384 5155554 5092322 5045389 5019244 5011836 5018003 5033054 
1609.380 5053904 5078476 5102010 5115890 5109319 5073012 5004060 4907170 
1613.237 4794756 4683478 4589773 4529335 4511356 4534659 4582808 4628318 
1617.095 4643087 4612578 4539447 4435932 4316144 4192676 4077671 3982894 
1620.952 3919498 3896328 3915051 3964102 4017773 4048574 4038808 3991588 
1624.809 3925048 3862563 3823819 3818136 3845547 3895894 3952733 3998042 
1628.667 4019478 4012489 3978045 3919464 3838995 3738120 3618291 3484266 
1632.524 3345607 3217541 3124520 3098056 3172313 3365876 3657183 3973798 
1636.382 4226702 4366445 4394125 4340240 4238379 4117007 3995936 3887502 
1640.239 3799117 3731503 3680106 3636768 3593701 3545761 3493652 3444487 
1644.097 3412326 3417002 3480191 3617423 3822381 4054427 4241490 4321766 
1647.954 4276457 4127142 3910036 3658186 3397065 3144945 2927862 2787247 
1651.811 2787880 3007796 3461487 4000784 4382812 4506769 4436769 4276222 
1655.669 4095031 3930698 3798582 3700357 3631422 3583344 3546864 3515096 
1659.526 3485335 3459216 3443051 3445022 3471807 3524650 3594670 3662831 
1663.384 3706239 3708979 3665738 3581073 3465395 3332418 3196779 3074663 
1667.241 2985576 2949512 2983240 3091882 3261071 3453705 3623871 3736449 
1671.099 3776923 3752090 3681744 3594002 3518771 3487172 3526086 3644687 
1674.956 3821212 4001152 4126372 4162868 4114063 4006771 3874431 3743902 
1678.813 3630720 3537844 3456243 3370450 3268516 3151286 3037558 2965592 
1682.671 2987411 3155324 3471273 3841168 4105232 4171365 4063758 3859755 
1686.528 3628782 3418605 3259636 3165204 3137369 3164503 3224351 3287078 
1690.386 3324939 3319363 3262273 3157460 3016971 2860651 2712355 2600642 
1694.243 2557178 2604975 2739763 2912785 3049970 3093350 3037057 2916521 
1698.100 2789014 2714622 2748532 2917955 3183895 3436572 3569513 3556852 
1701.958 3437841 3270052 3099023 2958486 2868222 2834903 2850178 2891503 
1705.815 2929764 2942607 2924627 2883898 2833336 2783045 2736429 2690117 
1709.673 2638776 2577376 2506286 2432143 2366873 2322633 2308110 2324465 
1713.530 2363975 2410852 2447737 2465164 2470596 2489790 2557378 2699652 
1717.388 2907681 3131328 3302469 3378899 3358496 3268316 3142809 3012700 
1721.245 2900109 2815393 2761103 2730027 2710088 2686783 2650144 2597008 
1725.102 2531081 2459633 2391894 2337124 2302680 2293187 2308443 2342321 
1728.960 2380033 2400956 2385630 2321634 2211420 2073500 1942779 1864472 
1732.817 1889497 2051560 2331761 2638643 2861351 2948612 2916087 2812425 
1736.675 2685049 2573043 2503087 2491523 2540780 2635476 2744865 2834903 
1740.532 2885166 2892738 2868822 2829200 2788214 2753934 2726426 2700752 
1744.390 2670247 2630676 2582576 2530815 2483225 2448203 2431909 2437141 
1748.247 2464464 2513618 2585042 2679582 2793750 2915453 3022910 3091148 
1752.104 3101393 3050337 2949746 2822697 2696118 2598775 2554611 2576676 
1755.962 2659812 2777076 2886867 2948078 2941039 2869756 2755468 2625742 
1759.819 2509619 2431743 2407853 2440373 2513718 2599975 2666280 2690350 
1763.677 2664012 2592442 2489724 2376535 2276532 2209988 2191971 2223809 
1767.534 2290555 2364141 2417049 2435408 2425112 2408219 2415649 2475561 
1771.391 2598075 2763971 2926728 3039760 3080369 3057712 2996585 2921591 
1775.249 2847010 2776242 2706854 2636576 2568810 2515018 2490323 2509152 
1779.106 2575609 2678782 2789982 2873358 2902577 2870457 2791849 2693451 
1782.964 2604609 2545446 2523849 2533181 2557444 2577376 2579009 2558078 
1786.821 2517717 2465131 2407586 2351715 2303879 2270937 2262710 2288990 
1790.679 2356946 2463831 2592842 2713389 2795017 2821763 2796584 2734628 
1794.536 2654111 2570543 2493356 2427178 2374469 2336991 2317603 2320501 
1798.393 2348984 2402989 2476127 2556111 2625709 2669980 2681349 2662912 
1802.251 2625409 2583542 2550112 2532348 2531581 2543546 2561177 2575876 
1806.108 2580576 2570810 2545746 2508319 2464531 2422213 2388595 2368906 
1809.966 2364208 2371171 2381865 2386063 2375169 2343853 2291221 2220312 
1813.823 2136760 2047133 1957857 1874822 1802150 1742930 1698354 1668584 
1817.681 1653949 1655346 1674305 1712159 1768713 1840314 1920281 1999563 
1821.538 2069571 2124307 2162333 2186809 2203793 2218546 2232301 2240794 
1825.395 2236498 2213518 2172557 2122509 2079060 2059650 2079193 2142654 
1829.253 2239828 2342421 2415383 2434175 2393560 2306810 2194169 2076130 
1833.110 1967709 1877883 1811832 1771641 1758267 1771474 1810102 1869264 
1836.968 1939551 2008750 2062347 2089048 2084952 2053957 2005621 1952265 
1840.825 1906536 1878815 1876818 1905804 1966377 2051993 2146783 2227872 
1844.682 2271736 2264442 2207190 2114452 2007419 1906969 1830964 1787643 
1848.540 1775400 1783718 1798690 1809536 1814161 1818919 1835989 1875920 
1852.397 1941082 2022398 2101533 2156872 2171391 2139857 2069238 1977028 
1856.255 1883607 1809802 1769345 1767449 1800952 1860878 1935224 2009250 
1860.112 2069072 2101633 2097871 2056154 1982687 1890795 1796993 1717381 
1863.970 1663262 1638550 1639481 1657541 1683751 1711360 1739803 1773570 
1867.827 1820916 1887966 1975597 2077195 2181215 2274933 2346785 2388629 
1871.684 2394093 2361177 2293886 2204459 2110523 2033550 1991940 1993172 
1875.542 2031087 2085585 2131166 2143220 2109524 2034183 1935391 1837785 
1879.399 1763822 1725698 1721606 1738439 1758499 1768413 1762425 1744194 
1883.257 1722305 1705739 1699718 1703144 1711061 1717282 1717681 1709830 
1887.114 1692766 1664094 1619958 1556241 1472318 1374817 1278368 1202440 
1890.972 1163933 1171408 1223406 1309541 1414506 1520495 1612542 1679693 
1894.829 1716450 1722903 1703410 1665457 1616599 1567314 1528243 1509822 
1898.686 1520928 1564554 1637120 1728825 1827537 1921812 2004922 2075697 
1902.544 2135928 2186643 2225007 2242726 2228604 2173156 2073300 1935690 
1906.401 1776864 1620490 1488344 1396589 1351185 1349623 1382030 1438342 
1910.259 1509589 1588531 1668418 1741100 1795263 1819817 1806608 1754740 
1914.116 1673241 1579386 1493730 1432059 1401409 1396257 1402240 1400512 
1917.974 1378972 1338854 1294851 1265740 1266571 1301564 1361887 1428369 
1921.831 1477039 1489507 1461846 1408390 1356037 1333968 1359760 1432258 
1925.688 1533064 1633927 1702978 1717581 1670613 1571571 1442132 1305320 
1929.546 1180046 1072613 977127 880667 772909 652302 530667 429861 375571 
1933.885 386846 468303 608269 783265 966866 1133303 1265674 1354442 1395094 
1938.225 1385421 1321106 1195563 1005256 754155 461935 167027 -75274 -209456 
1942.565 -198030 -35451 249703 608137 981610 1322502 1595747 1780690 1869297 
1946.904 1860346 1759497 1577424 1336727 1071782 825158 644570 566298 605847 
1951.244 751168 964043 1187389 1361389 1443894 1417465 1295084 1107624 
1955.101 896405 696538 529207 402168 313130 258323 239293 264258 343769 
1959.441 483628 677589 902049 1121642 1297078 1390240 1376978 1247298 
1963.298 1009108 688474 327421 -18786 -295885 -455619 -471638 -346510 
1967.156 -119531 146112 384127 544136 610526 600837 551103 493115 442299 
1971.495 385453 288527 110681 -172097 -551430 -980058 -1383723 -1681507 
1975.353 -1802820 -1716558 -1437028 -1017480 -527041 -37804 390030 718741 
1979.210 929708 1027707 1037239 999975 965172 978422 1071816 1250255 1487379 
1983.550 1730155 1919648 2006986 1971203 1823544 1601933 1355805 1125463 
1987.407 931169 765009 600240 404456 160298 -128176 -430992 -705910 -908115 
1991.747 -1009877 -1008753 -924812 -791711 -642490 -504834 -396896 -325585 
1995.604 -292508 -291117 -307871 -321579 -308931 -246480 -121551 61401 
1999.462 280835 503332 694315 827614 896338 914401 915131 937113 1014455 
2003.801 1165561 1386617 1651488 1917685 2139291 2272469 2292820 2198132 
2007.659 2009083 1760662 1494860 1254176 1066269 945082 884817 866656 859717 
2011.998 834353 764810 632326 428170 154067 -178986 -548287 -917770 -1235961 
2016.338 -1443997 -1484350 -1322682 -964156 -463562 87747 588361 940367 
2020.195 1082744 1002699 743667 388504 44335 -189650 -252507 -127017 157216 
2024.535 536937 930837 1264776 1489939 1586136 1560797 1437544 1244938 
2028.392 1006584 738755 452946 158376 -129567 -386104 -578797 -670380 
2032.250 -631870 -455254 -161299 204816 578308 891690 1093207 1154066 
2036.107 1078492 899260 672976 462167 318269 272911 330206 466744 635843 
2040.447 786651 873993 875023 795481 666173 530999 430259 391555 419281 
2044.786 499152 604453 709349 800493 876450 943057 1007448 1067697 1112573 
2049.126 1125429 1094237 1019504 917057 813937 735801 700488 707291 739584 
2053.465 770486 776261 747650 694315 640887 619451 654990 754122 906897 
2057.805 1089919 1278501 1451972 1601234 1725831 1827936 1905072 1947339 
2061.662 1938419 1865238 1724899 1533796 1323566 1139415 1023290 1000440 
2065.520 1073144 1219818 1401642 1572735 1696791 1751979 1736909 1668551 
2069.377 1578720 1505467 1483922 1540280 1682587 1899115 2156739 2410852 
2073.235 2611875 2717490 2705554 2579309 2368139 2115783 1874422 1686113 
2077.092 1574397 1542474 1575362 1646266 1726829 1794996 1840015 1860679 
2080.949 1863474 1858117 1854423 1859215 1877550 1911828 1963182 2030354 
2084.807 2110023 2194702 2274467 2337657 2373603 2375702 2342421 2278397 
2088.664 2192903 2095573 1995402 1896885 1800719 1704109 1605425 1506929 
2092.522 1417299 1350287 1322037 1345202 1422451 1542474 1680525 1805943 
2096.379 1887234 1903275 1850130 1742231 1606190 1474712 1374452 1317783 
2100.237 1300800 1304921 1306782 1285579 1232777 1154697 1071849 1009175 
2104.094 987787 1017976 1094038 1197024 1300401 1381133 1424313 1428069 
2107.951 1401542 1361588 1325792 1307281 1314592 1350819 1415770 1508259 
2111.809 1625712 1762225 1905504 2039077 2141655 2193603 2184212 2114318 
2115.666 1998731 1860612 1727128 1618495 1543239 1496523 1465403 1433688 
2119.524 1389742 1331110 1263547 1195529 1134266 1080120 1026312 963180 
2123.381 882958 784892 678319 580100 506749 470227 471189 498124 529705 
2127.721 540785 511194 429828 300828 141571 -16765 -138511 -188293 -139538 
2132.060 16434 265517 570047 877712 1128619 1272951 1286510 1176724 983503 
2136.400 765905 588859 498356 511758 612749 760727 898264 972511 950196 
2140.740 823266 611554 354181 104318 -86703 -177860 -147487 3644 248045 
2145.079 537269 816593 1028803 1130711 1105664 965637 748579 508607 301326 
2149.419 165502 117244 145250 220165 303812 364793 389433 384922 375770 
2153.758 390229 453178 570379 728897 897235 1038501 1122274 1136093 1088723 
2158.098 1008046 929642 878442 859153 853044 830237 755848 606809 374443 
2162.438 66770 -296614 -688641 -1075589 -1423686 -1695072 -1851454 -1863727 
2166.295 -1718835 -1427550 -1025942 -572112 -125990 262600 565070 782502 
2170.152 937810 1065206 1191808 1325061 1449479 1534361 1545899 1464639 
2174.010 1296446 1074573 844877 654393 536307 501541 544634 649050 801456 
2178.349 994761 1228822 1503605 1811466 2131066 2428211 2660845 2795217 
2182.207 2813859 2722725 2547979 2328829 2107160 1914789 1770909 1677831 
2186.064 1624149 1588763 1551519 1500945 1438807 1382761 1361821 1409354 
2189.922 1546265 1774635 2069804 2386463 2664713 2848977 2904245 2822997 
2193.779 2628509 2363342 2078527 1816457 1605392 1458654 1378108 1361322 
2197.636 1403304 1497819 1631299 1778627 1905737 1969240 1933959 1783817 
2201.494 1530437 1212541 889831 627979 475203 457756 567758 771946 1017511 
2205.833 1252315 1436580 1548992 1588331 1568644 1512083 1438209 1360591 
2209.691 1283951 1206494 1124931 1039597 957203 890959 856065 863336 914733 
2214.031 1001138 1103903 1199350 1269229 1303426 1304855 1285779 1264112 
2217.888 1256270 1272918 1320043 1399415 1511385 1656144 1831962 2030421 
2221.745 2232967 2412517 2535347 2572043 2509552 2355646 2140423 1905837 
2225.603 1697123 1545667 1464871 1447816 1475743 1527345 1587466 1651022 
2229.460 1722005 1805111 1901511 2004123 2100434 2176719 2224774 2245290 
2233.318 2246989 2243658 2246090 2259645 2280696 2299815 2303813 2281062 
2237.175 2224308 2131466 2006786 1859814 1707103 1568013 1465869 1423715 
2241.032 1457158 1571438 1757202 1991408 2239961 2467263 2644610 2754601 
2244.890 2795617 2778110 2721791 2648144 2575343 2515084 2470962 2438973 
2248.747 2409552 2372304 2317670 2242026 2149746 2054057 1973400 1927470 
2252.605 1931430 1988978 2090646 2214950 2335425 2426412 2471529 2465931 
2256.462 2416449 2335425 2236098 2130301 2025661 1929566 1851694 1804446 
2260.320 1801850 1855454 1968141 2130700 2322300 2516717 2686983 2813992 
2264.177 2890136 2917655 2904045 2858249 2785913 2689083 2568710 2430210 
2268.034 2284227 2148914 2045635 1992174 1998831 2064844 2178750 2321700 
2271.892 2473528 2617209 2739763 2835270 2901743 2940105 2952715 2942173 
2275.749 2911450 2863719 2802387 2731627 2656712 2586176 2530681 2504087 
2279.607 2521383 2593542 2723258 2900243 3102361 3296126 3446257 3525885 
2283.464 3521343 3438409 3299698 3139638 2992148 2884432 2830834 2830634 
2287.322 2872625 2939805 3015703 3086576 3143610 3182326 3201185 3200184 
2291.179 3181058 3148516 3108768 3069925 3040027 3023878 3023110 3035022 
2295.036 3055476 3080803 3110170 3146614 3195377 3260938 3343804 3437808 
2298.894 3531598 3609938 3658286 3668444 3639441 3578500 3498562 3414330 
2302.751 3338228 3277864 3235367 3208962 3194609 3188935 3189502 3196145 
2306.609 3209096 3228290 3252892 3281069 3311684 3344472 3381770 3426486 
2310.466 3481727 3548066 3621866 3694709 3756870 3798515 3814660 3806805 
2314.323 3784076 3760546 3749684 3762451 3801791 3863164 3935413 4006436 
2318.181 4065932 4110082 4142429 4173406 4216765 4284688 4385422 4520262 
2322.038 4682875 4859722 5032618 5181071 5283992 5326220 5298515 5201056 
2325.896 5044551 4848966 4642048 4451765 4304633 4217902 4197929 4240654 
2329.753 4334718 4465926 4619075 4780920 4938671 5078074 5185363 5247267 
2333.611 5255383 5209104 5117466 4996786 4866356 4744440 4641077 4559536 
2337.468 4497495 4452469 4425924 4425220 4460938 4541790 4668171 4830203 
2341.325 5007143 5174700 5312938 5410891 5469505 5498900 5512088 5516517 
2345.183 5512759 5493330 5449273 5373552 5265378 5129167 4973056 4806415 
2349.040 4638063 4478279 4336592 4225464 4157649 4144670 4193579 4302391 
2352.898 4460737 4648713 4842968 5023367 5175303 5294993 5387608 5465546 
2356.755 5541384 5624620 5717037 5812395 5897999 5958393 5982211 5964642 
2360.613 5910931 5835364 5759509 5704346 5685412 5707838 5764411 5836036 
2364.470 5897999 5929203 5916507 5859511 5769347 5665001 5564105 5478733 
2368.327 5410824 5353793 5296133 5226374 5138588 5033221 4916653 4796432 
2372.185 4680530 4572361 4472387 4378427 4288436 4202245 4121054 4047403 
2376.042 3982392 3924446 3869783 3811685 3743869 3662664 3568478 3465896 
2379.900 3362637 3268282 3190337 3133798 3099691 3085975 3088345 3101426 
2383.757 3120749 3142108 3162267 3178221 3186565 3183695 3166939 3134665 
2387.615 3087744 3029350 2965258 2902211 2846709 2804221 2777309 2766305 
2391.472 2769106 2782278 2802054 2824431 2847076 2868089 2887034 2903845 
2395.329 2918389 2930264 2938070 2940038 2935001 2922592 2904913 2885733 
2399.187 2870423 2863619 2867221 2879295 2894105 2903378 2899008 2876861 
2403.044 2837338 2787147 2735362 2691917 2663913 2653045 2656545 2669147 
2406.902 2685583 2703086 2721724 2744665 2775109 2814059 2859917 2907948 
2410.759 2952181 2987311 3009898 3019841 3019607 3013067 3004026 2996152 
2414.616 2991848 2991548 2994450 2998320 2998888 2991581 2972264 2938937 
2418.474 2892671 2838505 2784679 2739896 2711422 2703553 2715556 2742931 
2422.331 2778777 2816060 2848877 2873792 2890002 2899175 2904412 2910316 
2426.189 2921791 2943407 2977535 3023644 3077533 3131428 3175584 3202053 
2430.046 3205524 3186498 3150251 3105864 3062550 3027915 3005961 2996852 
2433.904 2998421 3007062 3019340 3032219 3042930 3048769 3047368 3037458 
2437.761 3020174 2999455 2981973 2974299 2982039 3005994 3041996 3081437 
2441.618 3114441 3131528 3128258 3105698 3070826 3034321 3007529 2999922 
2445.476 3016304 3055643 3111304 3172547 3227055 3263308 3274125 3257299 
2449.333 3217174 3161900 3102794 3050271 3011699 2990847 2987611 2998721 
2453.191 3019473 3045366 3071059 3092116 3104396 3104663 3092283 3068723 
2457.048 3038992 3009698 2986944 2974700 2972398 2976368 2980438 2979771 
2460.906 2972598 2961155 2950380 2945242 2948445 2958686 2971397 2981139 
2464.763 2984174 2980705 2974199 2969896 2971697 2980805 2994717 3008997 
2468.620 3019440 3024445 3025045 3024445 3024979 3027515 3029617 3027548 
2472.478 3017705 2998654 2972698 2944341 2918789 2900443 2891270 2891237 
2476.335 2898775 2912818 2932132 2955751 2981839 3006962 3026781 3036891 
2480.193 3034822 3021375 3000789 2979170 2962656 2955217 2957786 2968394 
2484.050 2983240 2998487 3011032 3018973 3020875 3016837 3006895 2992715 
2487.907 2977902 2967026 2965125 2975434 2998220 3030151 3065186 3096721 
2491.765 3120415 3134465 3140339 3141040 3138871 3134665 3127790 3117411 
2495.622 3104396 3092015 3084340 3084574 3091982 3101226 3102928 3087077 
2499.480 3048602 2988645 2916654 2846709 2793583 2767272 2769807 2794884 
2503.337 2831168 2865787 2888435 2894605 2885199 2865654 2843041 2825431 
2507.195 2819262 2829167 2857416 2903378 2963590 3031185 3097855 3155391 
2511.052 3197647 3222081 3230426 3226688 3215805 3201519 3185163 3166505 
2514.909 3145045 3122017 3100692 3086710 3085241 3099324 3128591 3168141 
2518.767 3210331 3246416 3269418 3275560 3265211 3242277 3213335 3185464 
2522.624 3164970 3155892 3158729 3171145 3188000 3203555 3212300 3212000 
2526.482 3203188 3189603 3176552 3168441 3167440 3173214 3182360 3190838 
2530.339 3195978 3196479 3193875 3190704 3190771 3197146 3212401 3238605 
2534.197 3277630 3330515 3396998 3474580 3557888 3638806 3708979 3760245 
2538.054 3787585 3789357 3767899 3728228 3676297 3619594 3565070 3519906 
2541.911 3490278 3480224 3490178 3515463 3548066 3576629 3591162 3586418 
2545.769 3563701 3530796 3498261 3476918 3472643 3485134 3508649 3535239 
2549.626 3557554 3571986 3578467 3579569 3577899 3574458 3568779 3560126 
2553.484 3549703 3541452 3542254 3558155 3592799 3643818 3703097 3757872 
2557.341 3796309 3809646 3795708 3759610 3711819 3665003 3630152 3614683 
2561.198 3620496 3644453 3679338 3716197 3746442 3762752 3761582 3743601 
2565.056 3712822 3675629 3639174 3609805 3590761 3583612 3587821 3602555 
2568.913 3626778 3660625 3703765 3754965 3811418 3869650 3925884 3978513 
2572.771 4028040 4077069 4127844 4180833 4232523 4275888 4302424 4305904 
2576.628 4285224 4245807 4198163 4155509 4128446 4121154 4130688 4148316 
2580.486 4162634 4163537 4146644 4113561 4071751 4030983 4001152 3989448 
2584.343 3998644 4027137 4070982 4124399 4181402 4237107 4288302 4332676 
2588.200 4369390 4398476 4420300 4435631 4445439 4450560 4452268 4451832 
2592.058 4450560 4449021 4447715 4446142 4443731 4440518 4437606 4437639 
2595.915 4444669 4462511 4493913 4538509 4592352 4648110 4696942 4731041 
2599.773 4745913 4742229 4725714 4706321 4694162 4697076 4718011 4753785 
2603.630 4795795 4832984 4856404 4861028 4848765 4827188 4807755 4800686 
2607.488 4812177 4842064 4884383 4929522 4968364 4996183 5012808 5022662 
2611.345 5031076 5041803 5054507 5064899 5066542 5055211 5030305 4996484 
2615.202 4961125 4931667 4912531 4902679 4897016 4888572 4873091 4850272 
2619.060 4824909 4804975 4798241 4808425 4834860 4871918 4912230 4948423 
2622.917 4976241 4995077 5007612 5017199 5026953 5038718 5052328 5066374 
2626.775 5079046 5088600 5093662 5094031 5090142 5084175 5079515 5079549 
2630.632 5087896 5106034 5133458 5166317 5199815 5228722 5249347 5261319 
2634.490 5266317 5268497 5271448 5277955 5288587 5301802 5315084 5325516 
2638.347 5330547 5327830 5316660 5296670 5269637 5238414 5208534 5185598 
2642.204 5174935 5179562 5199581 5231371 5269671 5309181 5346313 5380227 
2646.062 5411763 5442428 5472291 5499638 5520477 5531149 5530310 5519638 
2649.919 5504269 5490276 5483095 5484370 5492323 5501484 5506114 5502088 
2653.777 5488531 5468465 5447327 5430987 5424244 5429008 5445012 5470243 
2657.634 5501383 5535209 5568635 5598372 5621733 5636737 5642007 5638113 
2661.491 5626835 5611428 5595284 5582362 5575280 5575448 5583235 5597398 
2665.349 5615893 5635697 5653219 5665370 5670171 5667687 5659966 5651473 
2669.206 5646539 5649224 5660940 5680779 5705555 5731608 5755782 5776532 
2673.064 5794496 5811018 5826767 5841879 5854641 5862197 5862399 5853768 
2676.921 5836204 5811421 5781636 5749201 5716466 5685848 5659530 5640127 
2680.779 5629789 5629453 5638046 5652581 5668258 5679873 5683331 5676348 
2684.636 5659160 5633984 5604313 5573904 5546015 5523900 5510007 5506148 
2688.493 5512792 5528632 5550479 5572864 5590115 5597634 5592834 5576690 
2692.351 5553231 5528196 5506920 5493732 5490444 5496518 5509772 5527088 
2696.208 5545277 5560849 5571152 5573971 5568870 5556889 5541384 5527088 
2700.066 5518464 5518832 5528430 5545009 5563702 5579912 5590317 5594344 
2703.923 5594009 5593069 5595385 5603205 5617134 5635999 5657482 5678731 
2707.781 5697598 5712135 5721267 5724288 5722006 5716365 5710792 5708778 
2711.638 5713377 5725363 5743090 5762497 5779655 5792347 5801179 5810179 
2715.495 5825122 5850678 5888293 5934846 5984562 6029816 6064960 6088077 
2719.353 6100913 6108037 6113750 6121143 6130317 6139592 6146548 6149404 
2723.210 6148464 6144632 6139289 6132770 6125175 6116270 6106928 6100073 
2727.068 6098998 6107029 6124940 6150312 6177164 6198742 6209363 6206573 
2730.925 6192457 6171955 6150984 6133307 6119395 6106861 6091840 6071243 
2734.782 6044397 6013622 5982647 5954799 5931353 5910763 5889670 5863877 
2738.640 5830864 5790568 5745440 5700082 5659328 5627674 5607804 5600889 
2742.497 5606293 5620894 5640698 5659932 5673192 5676247 5667284 5647949 
2746.355 5623445 5600822 5586725 5586256 5600587 5627271 5660839 5695483 
2750.212 5725900 5748462 5762195 5767668 5766459 5759979 5750275 5738893 
2754.070 5727814 5719085 5714452 5715022 5720663 5729929 5740673 5750678 
2757.927 5758401 5763538 5766929 5770421 5775928 5785162 5798795 5816391 
2761.784 5836540 5856455 5873213 5883658 5885505 5877747 5861593 5840435 
2765.642 5818943 5802690 5796948 5804973 5828077 5865153 5913618 5969681 
2769.499 6029446 6089522 6146884 6199582 6246269 6286541 6320664 6349645 
2773.357 6374963 6397962 6419820 6441342 6462663 6484457 6507462 6533260 
2777.214 6563097 6598082 6638016 6681083 6724625 6765513 6801592 6832490 
2781.072 6859789 6886854 6916917 6952503 6994052 7040522 7089017 7137215 
2784.929 7183296 7227394 7270486 7314121 7359378 7405988 7452738 7497571 
2788.786 7539274 7577777 7615070 7654693 7700829 7757629 7827087 7909311 
2792.644 8002114 8101485 8202704 8301581 8394942 8481598 8561715 8636542 
2796.501 8708101 8777847 8847265 8917439 8989247 9064316 9144642 9232160 
2800.359 9328699 9434639 9549005 9668992 9791180 9912183 10029930 10144147 
2804.216 10256631 10369925 10486471 10607703 10733246 10861475 10990287 
2807.591 11118865 11248024 11381032 11521804 11674671 11842164 12023415 
2810.967 12214898 12410386 12603609 12789376 12966040 13135603 13303968 
2814.342 13478072 13665103 13869250 14091120 14327211 14571655 14818533 
2817.717 15063768 15307391 15553349 15809549 16084157 16383987 16712362 
2821.092 17068142 17446460 17841196 18247140 18662424 19089080 19532064 
2824.468 19997704 20491318 21015854 21571596 22156884 22770932 23415396 
2827.843 24095526 24820398 25601342 26448730 27371030 28372324 29452832 
2831.218 30609948 31841066 33145488 34526512 35991672 37552096 39221168 
2834.593 41010312 42928976 44981488 47167128 49479920 51911132 54449392 
2837.969 57082376 59798648 62586696 65434128 68328552 71255816 74200632 
2841.344 77149208 80088880 83010736 85909808 88782880 91626664 94435048 
2844.719 97196384 99894560 102509152 105017536 107398832 109632384 111698256 
2848.094 113575504 115239296 116660840 117809472 118653712 119167704 
2850.987 119332744 119141200 118596368 117713664 116520520 115052448 
2853.880 113354344 111476256 109466512 107373120 105236048 103087384 
2856.773 100954032 98857064 96816128 94851760 92982680 91227056 89599768 
2860.149 88109064 86757400 85541960 84455800 83490712 82638120 81889656 
2863.524 81236520 80669320 80176712 79746280 79366280 79024680 78710360 
2866.899 78413016 78120392 77817632 77487352 77108288 76659536 76122648 
2870.274 75483832 74737784 73887384 72944456 71926176 70855624 69757984 
2873.650 68657296 67577800 66540816 65563932 64663300 63851796 63139596 
2877.025 62535340 62045012 61672500 61419112 61284248 61265172 61358428 
2880.400 61560736 61869224 62282056 62798000 63414312 64127080 64929320 
2883.775 65811308 66761776 67769128 68822608 69913840 71036456 72185816 
2887.151 73358376 74550808 75760320 76983928 78219416 79464704 80718240 
2890.526 81977176 83238032 84495808 85744720 86979296 88195232 89389760 
2893.901 90562712 91715224 92849632 93968952 95076072 96173616 97263864 
2897.276 98348584 99428408 100504064 101575904 102645616 103715648 104789728 
2900.652 105872336 106966888 108075560 109197720 110331368 111474712 
2903.545 112628288 113796304 114986464 116209256 117475224 118791376 
2906.438 120160856 121581488 123048824 124556048 126097856 127670080 
2909.331 129270120 130896048 132545248 134213880 135896384 137585424 
2912.224 139272192 140946336 142594976 144203760 145757168 147238560 
2915.117 148632640 149923952 151096192 152131392 153007200 153696512 
2918.010 154171296 154402816 154366896 154047088 153434624 152527872 
2920.903 151332224 149858112 148120144 146139840 143945584 141569712 
2923.796 139049696 136423728 133725328 130985144 128228512 125475752 
2926.689 122745248 120051760 117406840 114817840 112286248 109808784 
2929.582 107379736 104994072 102650312 100353328 98112992 95943160 93857240 
2932.958 91864016 89967320 88163736 86445760 84804152 83231816 81725088 
2936.333 80285328 78916792 77625872 76418904 75300072 74272576 73338296 
2939.708 72498696 71756232 71113104 70571528 70131976 69792696 69548600 
2943.083 69391328 69311400 69297608 69338384 69424208 69545256 69693136 
2946.458 69860008 70037664 70217888 70391784 70549000 70678888 70769512 
2949.834 70808472 70783088 70681000 70490376 70202344 69810088 69310896 
2953.209 68705840 67999824 67200016 66315404 65355748 64330304 63248044 
2956.584 62118256 60948952 59749748 58529504 57296764 56059144 54822068 
2959.959 53589108 52360984 51136140 49911504 48682820 47446744 46201344 
2963.335 44947200 43687208 42427032 41172976 39931288 38706424 37502028 
2966.710 36319620 35160864 34027588 32922674 31849660 30812082 29812572 
2970.085 28851934 27928538 27038660 26177240 25339164 24520158 23717534 
2973.460 22931164 22162776 21416110 20695608 20005822 19350390 18731954 
2976.836 18151328 17608396 17101296 16627422 16183538 15765326 15368216 
2980.211 14987724 14619354 14260506 13909790 13568382 13237933 12921219 
2983.586 12619573 12332556 12057924 11792249 11532283 11276349 11025121 
2986.961 10781850 10551276 10337451 10142825 9967035 9807074 9658252 9515611 
2990.819 9375961 9237913 9102684 8973146 8852744 8744273 8648979 8566447 
2994.676 8494843 8431359 8373761 8320832 8272537 8229987 8194431 8166272 
2998.534 8143989 8124510 8103275 8076168 8040591 7997355 7949635 7903473 
3002.391 7864907 7837613 7821689 7813018 7804686 7788595 7758742 7713005 
3006.249 7653445 7585330 7515877 7451558 7396248 7351223 7315065 7285109 
3010.106 7258154 7232043 7205934 7179826 7153855 7128592 7103735 7078678 
3013.963 7052477 7024358 6993985 6961560 6927925 6893755 6859553 6825557 
3017.821 6790957 6754610 6715405 6672537 6626039 6577023 6527609 6480084 
3021.678 6436466 6398164 6365683 6338617 6316394 6298240 6282877 6268758 
3025.536 6253732 6234538 6208186 6172325 6126956 6074738 6019904 5968102 
3029.393 5924299 5890275 5864918 5844331 5823678 5799601 5771865 5743560 
3033.250 5720058 5706260 5704917 5714384 5730298 5745810 5754741 5753800 
3037.108 5743157 5725732 5706293 5689373 5677556 5671379 5669499 5669802 
3040.965 5669567 5666713 5659328 5645800 5625089 5596660 5561386 5521014 
3044.823 5478565 5437832 5401698 5372512 5351277 5337390 5329407 5325247 
3048.680 5322732 5319378 5312334 5299152 5278256 5249380 5214704 5178791 
3052.538 5147037 5125378 5117801 5125344 5145730 5174096 5204745 5231539 
3056.395 5250252 5258368 5255316 5241130 5217253 5185698 5149552 5113275 
3060.252 5081895 5060105 5050853 5054306 5067748 5085583 5101172 5108715 
3064.110 5103620 5083840 5049445 5002250 4944368 4879324 4811173 4744573 
3067.967 4685186 4637795 4605947 4590275 4588635 4596336 4607086 4615692 
3071.825 4617936 4611908 4598279 4578689 4555284 4530741 4507673 4488356 
3075.682 4475467 4470680 4473994 4483803 4495955 4505296 4507238 4498466 
3079.540 4478815 4450293 4416350 4380469 4344992 4311192 4279636 4251227 
3083.397 4228375 4213854 4210441 4219040 4237910 4262671 4287399 4306774 
3087.254 4317516 4318587 4311359 4297204 4276524 4247848 4209304 4159423 
3091.112 4100115 4036099 3975437 3926252 3894623 3881986 3885062 3897231 
3094.969 3910738 3919431 3921136 3917157 3911106 3907160 3908264 3915352 
3098.827 3928057 3944975 3965205 3988043 4012857 4038239 4061450 4078909 
3102.684 4087304 4084628 4070915 4049142 4023759 3999581 3980553 3968649 
3106.542 3964169 3965071 3968716 3972495 3973866 3971291 3964269 3953502 
3110.399 3940228 3927355 3917792 3914483 3919464 3932838 3952934 3976474 
3114.256 3999346 4018107 4030380 4035664 4034895 4030180 4023592 4017171 
3118.114 4012489 4010148 4011051 4015599 4023892 4035263 4048306 4060280 
3121.971 4068039 4068942 4060748 4043557 4018776 3989682 3960122 3933373 
3125.829 3911841 3895693 3883724 3873929 3864201 3853804 3844210 3838494 
3129.686 3840633 3853904 3878977 3912677 3948352 3977845 3992792 3988411 
3133.543 3965004 3927890 3885998 3848957 3824688 3816231 3822281 3837558 
3137.401 3855576 3870352 3878509 3879178 3874197 3866340 3858016 3851397 
3141.258 3847452 3846349 3848355 3853202 3860690 3869315 3877038 3881384 
3145.116 3880047 3871589 3856880 3837858 3817969 3800721 3788722 3783240 
3148.973 3784109 3790226 3799986 3811986 3825457 3839797 3854740 3869951 
3152.831 3884995 3899638 3913446 3926586 3939091 3951195 3962463 3972361 
3156.688 3979885 3984064 3984399 3980788 3973933 3965071 3955240 3945711 
3160.545 3937252 3930464 3925683 3923243 3923643 3927221 3933808 3942468 
3164.403 3951897 3959587 3963366 3961025 3951931 3936349 3916288 3894389 
3168.260 3873327 3855308 3840733 3829435 3819774 3810883 3802125 3795039 
3172.118 3791396 3793936 3804966 3825123 3853470 3886900 3921972 3954705 
3175.975 3981857 4001252 4011954 4014562 4010349 4001654 3991588 3983396 
3179.833 3980353 3984566 3997039 4016602 4040046 4062654 4079277 4085464 
3183.690 4078340 4057403 4024394 3983195 3938489 3894991 3857515 3828499 
3187.547 3809813 3800655 3799485 3802861 3807306 3809345 3807106 3799819 
3191.405 3788923 3776790 3766261 3760212 3760914 3770005 3788087 3815496 
3195.262 3851431 3892952 3935547 3972695 3996838 4001988 3985268 3948286 
3199.120 3897666 3842940 3794571 3760412 3744337 3744571 3756101 3772110 
3202.977 3786315 3795407 3798649 3797212 3793034 3787318 3780433 3772211 
3206.834 3763186 3754831 3749784 3750887 3758808 3771743 3784577 3790727 
3210.692 3783809 3760680 3722547 3676163 3630353 3595906 3580705 3587821 
3214.549 3614750 3653708 3694375 3725855 3740092 3734043 3709413 3672488 
3218.407 3632725 3600684 3584514 3588823 3613948 3655880 3707141 3759710 
3222.264 3805869 3839931 3858752 3860824 3846951 3819273 3781034 3737352 
3226.122 3694308 3658654 3636968 3632892 3646658 3674225 3707575 3736884 
3229.979 3753360 3751622 3731002 3695645 3652673 3610339 3575326 3551106 
3233.836 3538278 3535038 3538846 3546997 3558289 3572052 3588222 3607132 
3237.694 3628148 3650501 3673189 3695010 3714627 3730133 3739658 3741195 
3241.551 3733676 3717099 3693673 3666941 3641345 3621064 3608736 3604726 
3245.409 3607433 3614182 3622601 3631322 3640477 3650568 3662296 3675060 
3249.266 3686723 3694609 3696480 3691301 3680006 3664902 3648863 3633828 
3253.124 3620229 3606764 3591964 3575093 3556752 3539782 3527756 3524416 
3256.981 3531598 3548968 3574458 3604827 3637035 3669347 3700892 3731503 
3260.838 3760245 3785513 3804331 3813557 3811083 3796610 3772211 3741563 
3264.696 3709580 3680240 3656549 3639274 3628415 3623403 3623704 3629484 
3268.553 3641045 3658553 3680708 3705269 3728796 3748013 3759710 3762518 
3272.411 3756235 3742331 3722781 3699655 3675027 3650267 3626711 3605996 
3276.268 3589525 3579168 3575861 3580070 3590160 3604092 3618659 3630954 
3280.125 3639307 3643317 3643952 3643751 3645155 3649699 3658086 3669747 
3283.983 3682913 3695745 3706138 3712120 3712721 3706573 3693406 3673423 
3287.840 3648964 3622635 3599047 3582008 3574859 3578300 3590226 3606597 
3291.698 3622467 3633026 3636200 3631790 3622234 3610139 3598011 3587019 
3295.555 3576997 3567342 3558122 3550104 3544325 3542053 3543089 3545628 
3299.413 3546930 3544459 3537444 3527422 3518236 3514161 3518637 3532232 
3303.270 3552242 3573923 3592899 3606497 3615084 3622000 3632090 3649331 
3307.127 3674793 3706940 3741262 3773414 3799217 3817033 3827162 3831307 
3310.985 3831507 3828900 3824287 3817601 3808978 3799184 3788455 3777257 
3314.842 3765192 3751790 3735982 3717701 3698318 3679806 3665136 3656582 
3318.700 3655513 3661761 3673657 3689062 3705403 3720441 3731904 3737953 
3322.557 3736249 3726156 3707442 3681877 3653107 3625575 3603891 3590494 
3326.415 3586184 3589559 3598445 3611008 3626911 3647059 3673089 3705537 
3330.272 3742799 3781101 3815362 3840399 3853637 3855275 3848355 3837825 
3334.129 3828098 3822147 3820142 3820476 3820510 3818136 3812788 3804766 
3337.987 3795574 3785848 3775653 3763320 3746910 3724619 3696313 3663733 
3341.844 3630654 3602555 3584213 3579168 3588122 3608168 3634496 3659690 
3345.702 3677299 3682913 3675695 3658286 3636801 3618458 3608769 3611041 
3349.559 3624305 3644687 3665671 3681042 3686790 3681543 3666740 3647126 
3353.417 3628014 3614683 3610907 3618158 3635231 3659222 3685720 3710717 
3357.274 3730668 3744303 3751689 3754497 3754797 3754096 3753193 3752224 
3361.131 3751689 3752792 3758340 3772010 3796343 3831875 3874865 3918562 
3364.989 3953970 3972628 3970321 3948386 3914315 3878375 3851598 3842104 
3368.846 3852333 3879144 3915853 3953870 3985235 4004396 4008576 3997574 
3372.704 3972996 3938088 3897131 3855175 3817869 3790193 3775185 3773347 
3376.561 3782037 3796243 3809680 3816532 3813457 3799217 3775386 3745440 
3380.418 3713557 3684484 3662329 3650367 3650768 3664000 3688126 3719806 
3384.276 3753394 3783374 3805200 3816164 3816131 3806437 3789725 3767765 
3388.133 3741730 3712588 3680975 3648730 3618926 3594470 3578667 3572387 
3391.991 3575059 3584046 3596173 3608903 3621866 3635365 3651102 3669848 
3395.848 3691100 3712321 3730701 3743702 3750486 3752692 3753527 3756970 
3399.706 3765459 3779898 3798047 3816933 3832209 3840466 3840433 3832577 
3403.563 3819306 3803997 3789791 3778528 3770406 3763220 3753995 3739257 
3407.420 3717233 3688694 3657484 3630219 3614182 3615418 3637035 3677366 
3411.278 3729966 3786817 3837858 3875233 3894155 3893754 3876002 3844945 
3415.135 3805769 3763186 3721544 3684083 3653241 3630821 3617623 3614315 
3418.993 3620897 3636902 3661294 3692938 3729465 3768200 3805568 3837792 
3422.850 3861727 3875701 3880147 3877239 3870753 3863733 3858585 3855576 
3426.708 3853202 3848054 3837558 3819741 3794471 3762719 3727359 3691568 
3430.565 3657952 3629050 3606564 3590995 3582041 3578066 3577130 3577164 
3434.422 3576796 3576429 3578099 3584614 3598579 3621231 3651169 3685152 
3438.280 3718503 3747913 3772010 3791730 3809512 3827128 3844243 3857849 
3442.137 3862964 3855944 3836588 3809746 3784678 3772177 3781569 3815997 
3445.995 3871321 3935513 3994063 4032454 4042587 4025163 3987977 3942301 
3449.852 3899337 3867310 3849492 3844745 3848823 3856412 3862696 3865037 
3453.709 3863097 3858317 3852968 3848556 3845681 3842873 3837792 3827195 
3457.567 3809613 3785279 3757237 3730534 3711385 3704835 3712989 3734310 
3461.424 3763922 3794939 3820577 3836856 3842572 3840065 3832644 3823618 
3465.282 3814861 3806003 3795307 3781402 3764390 3746208 3730100 3719606 
3469.139 3716899 3721979 3731670 3741663 3747879 3748381 3743802 3738020 
3472.997 3736884 3745740 3767097 3799418 3836622 3869182 3886733 3881718 
3476.854 3851163 3798148 3730968 3662463 3606263 3574024 3573255 3606063 
3480.711 3667776 3749216 3838794 3924814 3997574 4051517 4084461 4097472 
3484.569 4093826 4077337 4052888 4024394 3995902 3969619 3946814 3926720 
3488.426 3906893 3884694 3857615 3824153 3784544 3740660 3695679 3653976 
3492.284 3619962 3597777 3590928 3601018 3627847 3668845 3718770 3770473 
3496.141 3816064 3848589 3863532 3858919 3836421 3800220 3755733 3708511 
3499.999 3664936 3630386 3610072 3607800 3625542 3661193 3708878 3758608 
3503.856 3799050 3820142 3816799 3789892 3746108 3695812 3651603 3623771 
3507.713 3618893 3638706 3679605 3733274 3791028 3845647 3892885 3931768 
3511.571 3962697 3985736 4000383 4004864 3997708 3978747 3950693 3917659 
3515.428 3884660 3855910 3833446 3816331 3802025 3787251 3769537 3748314 
3519.286 3724652 3700858 3679037 3660057 3643384 3627245 3609337 3588957 
3523.143 3566707 3545628 3530495 3526420 3537510 3565739 3609872 3665638 
3527.000 3725588 3780800 3822917 3846015 3848489 3832777 3803864 3767231 
3530.858 3727359 3687024 3646658 3606764 3568210 3534103 3509150 3498128 
3534.715 3505109 3530963 3572487 3622234 3670917 3710583 3735514 3743869 
3538.573 3736082 3713824 3678803 3632859 3578133 3518203 3458414 3405447 
3542.430 3366577 3348312 3355558 3389685 3449263 3529393 3622835 3719205 
3546.288 3807540 3876136 3915486 3920534 3892517 3838761 3770807 3703799 
3550.145 3651603 3624038 3625308 3651102 3691434 3732807 3765292 3784577 
3554.002 3792532 3794036 3793836 3794605 3794939 3791998 3783775 3769871 
3557.860 3753628 3740159 3734678 3739390 3752090 3765326 3768534 3751656 
3561.717 3707007 3632424 3531631 3414898 3297428 3198681 3141841 3149117 
3565.575 3237336 3408386 3642281 3895927 4117441 4269831 4340173 4339035 
3569.432 4287633 4208768 4120218 4033691 3956243 3890946 3839062 3801156 
3573.290 3777023 3765559 3763788 3767899 3772912 3775018 3771910 3764022 
3577.147 3753527 3743267 3735280 3731069 3730367 3732639 3737151 3742799 
3581.004 3747345 3746542 3734210 3703732 3650267 3574424 3483999 3395095 
3584.862 3331884 3321534 3388115 3541820 3768400 4022755 4244067 4382979 
3588.719 4418224 4360320 4237542 4084194 3929695 3797680 3706071 3665170 
3592.577 3678836 3742365 3843307 3961125 4072320 4156713 4201375 4203851 
3596.434 4171533 4118579 4061350 4016234 3996972 4010616 4057336 4127577 
3600.292 4205724 4270534 4302691 4289909 4229981 4129818 4002891 3866674 
3604.149 3736784 3628081 3553712 3523514 3545160 3620663 3743535 3894322 
3608.006 4042721 4155910 4208768 4195620 4130353 4042822 3966910 3933674 
3611.864 3962162 4051015 4174008 4286797 4345829 4322302 4214456 4042955 
3615.721 3842940 3651837 3505777 3436305 3462790 3588423 3793100 4037704 
3619.579 4271772 4452000 4555485 4580263 4540083 4454946 4344691 4223122 
3623.436 4096268 3963132 3818303 3657017 3482028 3306676 3162000 3093984 
3627.293 3156693 3392223 3789825 4257652 4648110 4858314 4878754 4771574 
3631.151 4612578 4465624 4369926 4338031 4360789 4410425 4453272 4461072 
3635.008 4423580 4348473 4255309 4164441 4091217 4041985 4014596 4001387 
3638.866 3994698 3991087 3990284 3994263 4001554 4004831 3990819 3943738 
3642.723 3850729 3708377 3524349 3317160 3110136 2931365 2807789 2761003 
3646.581 2803821 2936936 3150185 3426920 3752558 4111454 4476974 4804439 
3650.438 5037612 5133458 5084644 4915447 4671185 4400953 4154973 3975136 
3654.295 3893553 3928157 4069711 4277026 4483669 4631164 4690310 4668506 
3658.153 4593691 4498198 4405840 4328962 4272040 4234698 4215527 4213787 
3662.010 4228375 4255711 4286830 4309083 4306640 4266285 4181502 4054460 
3665.868 3896529 3726189 3570115 3459450 3428256 3508349 3712955 4016067 
3669.725 4338968 4579158 4656885 4556757 4319390 4014897 3716331 3491781 
3673.583 3411725 3533735 3874096 4358446 4827991 5123333 5195054 5102010 
3677.440 4939810 4784103 4672860 4615090 4596805 4594394 4586826 4564592 
3681.297 4529570 4489427 4448820 4405137 4347569 4263474 4144603 3994263 
3685.155 3827697 3672220 3559424 3519672 3576061 3734544 3977310 4261934 
3689.012 4538811 4766482 4925970 5017232 5049814 5034797 4982609 4903986 
3692.870 4810301 4713689 4624902 4550161 4490365 4440083 4389840 4329095 
3696.727 4251662 4158653 4060246 3972528 3913747 3902045 3949790 4060079 
3700.584 4221515 4408183 4582909 4708632 4764237 4746416 4668741 4551802 
3704.442 4417321 4282313 4158352 4052754 3968783 3907395 3869549 3857147 
3708.299 3874263 3927255 4023123 4166648 4355534 4575207 4796867 4983446 
3712.157 5102312 5134464 5081694 4961125 4798308 4619075 4447079 4300784 
3716.014 4191840 4125937 4101553 4111320 4142930 4184279 4226167 4264042 
3719.872 4297237 4326552 4350314 4364169 4361258 4337128 4293657 4243063 
3723.729 4204854 4200839 4249086 4353995 4501312 4656214 4775996 4823837 
3727.586 4782796 4661306 4485510 4290109 4106637 3961360 3867176 3821011 
3731.444 3803696 3788989 3758173 3714693 3688594 3729699 3884360 4165311 
3735.301 4530071 4888304 5149754 5267289 5253170 5152235 5011601 4859587 
3739.159 4702736 4530641 4327322 4083692 3808944 3531898 3305307 3197213 
3743.016 3274759 3569179 4023959 4482129 4763869 4793684 4613247 4318487 
3746.874 3994932 3707575 3500299 3398901 3420775 3571284 3843007 4210207 
3750.731 4628284 5035165 5360704 5551083 5584208 5475444 5266686 5010059 
3754.588 4754154 4532985 4369256 4270400 4232523 4244368 4294125 4372570 
3758.446 4473391 4588267 4701229 4787353 4822028 4790568 4697210 4562382 
3762.303 4418526 4298408 4227304 4218806 4266552 4343587 4409923 4432986 
3766.161 4401455 4331706 4256748 4216062 4240721 4343319 4510552 4703607 
3770.018 4872521 4973727 4991825 4938503 4842365 4731979 4630059 4547917 
3773.875 4485376 4433957 4382477 4323139 4255510 4189431 4142228 4135638 
3777.733 4186320 4297906 4452569 4614118 4737137 4788324 4761021 4673430 
3781.590 4558197 4449021 4374545 4350280 4377021 4440518 4517516 4582909 
3785.448 4619376 4622926 4599350 4561010 4518454 4480723 4452837 4437171 
3789.305 4434359 4443263 4460001 4476906 4484138 4471550 4433087 4370997 
3793.163 4297806 4234564 4204687 4229345 4315709 4449523 4591180 4690946 
3797.020 4708632 4632236 4481761 4301822 4150156 4083926 4154103 4380770 
3800.877 4727289 5085114 5323839 5365836 5219768 4954389 4653837 4395095 
3804.735 4233627 4209438 4334985 4584214 4883948 5140164 5284663 5299823 
3808.592 5215911 5079817 4932571 4795125 4669511 4545072 4407380 4249052 
3812.450 4078073 3916957 3803429 3780165 3880181 4107908 4419697 4723973 
3816.307 4918027 4948624 4828628 4619477 4393924 4225899 4178759 4294794 
3820.165 4576580 4959818 5323637 5543599 5570750 5437094 5215576 4975470 
3824.022 4770937 4636254 4584884 4611640 4689774 4780418 4841561 4847625 
3827.879 4796096 4704980 4601829 4514402 4464520 4461775 4501781 4566769 
3831.737 4633374 4678052 4686525 4656516 4594562 4512193 4423178 4343720 
3835.594 4289841 4278230 4323373 4431145 4593423 4784572 4967996 5105765 
3839.452 5174231 5171615 5115823 5035065 4959081 4912866 4908912 4945440 
3843.309 5006473 5067849 5103083 5093830 5034528 4931097 4795996 4643087 
3847.167 4483334 4321231 4155308 3980052 3791362 3590928 3394493 3232028 
3851.024 3156025 3235967 3542053 4100182 4828863 5535176 6018896 6211615 
3854.881 6172459 6004551 5788788 5571018 5367547 5177684 4996116 4819884 
3858.739 4652296 4501513 4376687 4283350 4221449 4186052 4172335 4181536 
3862.596 4223925 4314036 4457992 4639938 4814791 4923255 4922149 4802563 
3866.454 4595131 4355401 4152899 4050413 4095432 4294058 4592385 4878586 
3870.311 5043847 5050954 4940481 4794120 4688568 4677918 4775024 4948959 
3874.168 5130441 5246831 5250755 5137985 4938469 4697746 4461741 4267556 
3878.026 4148183 4126807 4211545 4385657 4603369 4797168 4901640 4886528 
3881.883 4763802 4579493 4392083 4264544 4249688 4375616 4628518 4941318 
3885.741 5213732 5354967 5334237 5178523 4947083 4698315 4483133 4339637 
3889.598 4290277 4342582 4483669 4680898 4886494 5055245 5157834 5183150 
3893.456 5137080 5033858 4892861 4732749 4572528 4429840 4318085 4247613 
3897.313 4222754 4241658 4293556 4361492 4425355 4466127 4474697 4455314 
3901.170 4425689 4410358 4435631 4519123 4661707 4842968 5026350 5173325 
3905.028 5256591 5270811 5228722 5152235 5061681 4972252 4892191 4823737 
3908.885 4767520 4723705 4693324 4676444 4670181 4667803 4659095 4634379 
3912.743 4589271 4528331 4463817 4414308 4398275 4426995 4500174 4604072 
3916.600 4716201 4812948 4880094 4914978 4922585 4909616 4878519 4827858 
3920.458 4756030 4665927 4569079 4483635 4431446 4430643 4487653 4592218 
3924.315 4717374 4828863 4895743 4904723 4860291 4779580 4681970 4585554 
3928.172 4501881 4437338 4395229 4378461 4390008 4432819 4505798 4601728 
3932.030 4705249 4798140 4864245 4895006 4892928 4869338 4838411 4812680 
3935.887 4798977 4796565 4798508 4793919 4773852 4734658 4681234 4625270 
3939.745 4583176 4571557 4601125 4673295 4776331 4888170 4978888 5024070 
3943.602 5011433 4945675 4844040 4731107 4632436 4567271 4547616 4575140 
3947.459 4642685 4733720 4828762 4910286 4965616 4989848 4984854 4957740 
3951.317 4917390 4873392 4834525 4806415 4792110 4791540 4801222 4816366 
3955.174 4831308 4841528 4843940 4837607 4823737 4804372 4783031 4762830 
3959.032 4747019 4738577 4738912 4748325 4765008 4784974 4803769 4817103 
3962.889 4822899 4821190 4814624 4806985 4801155 4798408 4798374 4798643 
3966.747 4796934 4791775 4783165 4772746 4763065 4756365 4754321 4757671 
3970.604 4766214 4779580 4797102 4817639 4839919 4861799 4880898 4894804 
3974.461 4902411 4903685 4899731 4892459 4882775 4870410 4854293 4833084 
3978.319 4806047 4775192 4744607 4719685 4706555 4709569 4729935 4765343 
3982.176 4810771 4859185 4903819 4939174 4962064 4971548 4968264 4954556 
3986.034 4933376 4907807 4880630 4854025 4829399 4807454 4788425 4772713 
3989.891 4761088 4754489 4754288 4761490 4776465 4797537 4821894 4844878 
3993.749 4861062 4865887 4855969 4831108 4794187 4751106 4709168 4675372 
3997.606 4654573 4647976 4653435 4666061 4680296 4691884 4699186 
##END=
