##TITLE=lb_3 Sep 07 10:16:52 2026 (GMT+02:00)
##JCAMP-DX=5.01  $$ Nicolet v. 970
##DATATYPE=INFRARED SPECTRUM
##ORIGIN=Vojna akademija
##OWNER=Nicolet
##LONGDATE=2026/09/07
##TIME=10:17:18
##SPECTROMETER/DATA SYSTEM=Nicolet iS20
##DATA PROCESSING=
Ratio against background
%Transmittance->Absorbance
Truncated
ElementMultiply or ElementDivide
##COMMENTS=
Number of sample scans: 8
Collection length: 11,90 sec
Sample gain: 8,0
Background collected on: Mon Sep 07 10:04:03 2026 (GMT+02:00);
Number of background scans: 8
Background gain: 8,0
Sample spacing:  1,000
Number of scan points: 12415
Resolution points: 8286
Number of FFT points: 65536
Apodization: N-B strong;
Phase correction: Mertz;
Laser frequency: 15798,00 cm-1
Number of rejected sample scans: 0
Number of rejected background scans: 0
Bench serial number: BER2010005;
##RESOLUTION= 4,000
##XUNITS=1/CM
##YUNITS=ABSORBANCE
##FIRSTX=400.156891
##LASTX=4000.123047
##FIRSTY=-0.005497
##MAXX=4000.123047
##MINX=400.156891
##MAXY=0.267301
##MINY=-0.009755
##XFACTOR=1.000000
##YFACTOR=1.000000E-009
##NPOINTS=7468
##DELTAX=0.482117
##ZPD=6100
##XYDATA=(X++(Y..Y))
400.157 -5497318 -7936009 -9343168 -9754657 -9209183 -7775749 -5580837 
403.532 -2839759 133882 2963223 5225603 6606661 6993850 6529527 5545143 
407.389 4456285 3638940 3319964 3581607 4360086 5505813 6827542 8151822 
411.246 9338956 10257547 10786300 10812828 10259312 9125524 7498482 5527390 
415.103 3362703 1142837 -1019529 -3025048 -4719947 -5890663 -6302463 
418.477 -5856013 -4759146 -3513497 -2629229 -2314694 -2476619 -2834360 
421.852 -3079632 -2931031 -2225863 -970636 629837 2230303 3475315 4121723 
425.709 4135772 3656616 2912618 2109624 1391703 814070 365821 18886 -228167 
430.048 -335187 -230220 139483 765440 1552284 2348617 2988578 3348178 
433.905 3386312 3140005 2708988 2209621 1749750 1392168 1154398 1033519 
437.762 1033320 1183369 1538484 2154209 3063751 4249989 5635126 7068911 
441.619 8350556 9275789 9668111 9443782 8634480 7379363 5872945 4323607 
445.476 2922425 1802383 1042022 649116 569483 702346 940732 1209152 1473449 
449.815 1738672 2028191 2359811 2729126 3109602 3466130 3779998 4063958 
453.672 4358212 4706655 5133291 5619551 6100745 6467977 6601278 6413968 
457.529 5903542 5174365 4403229 3767465 3371886 3251023 3388282 3742131 
461.386 4251896 4832950 5375699 5741713 5804335 5482760 4767286 3729565 
465.243 2515884 1323566 339789 -291084 -526611 -432184 -151760 165072 427274 
469.582 626287 833391 1161408 1717348 2545346 3593234 4710809 5706428 
473.439 6399072 6688216 6570699 6120907 5457862 4717608 4044527 3556785 
477.296 3327644 3359398 3577832 3849124 4026568 4009613 3769871 3371118 
481.152 2941306 2641677 2594609 2841440 3330482 3945176 4549558 5037244 
485.009 5366641 5552727 5637308 5649862 5586759 5416929 5108078 4656349 
488.866 4104697 3535640 3048068 2708754 2533681 2478660 2468929 2429644 
492.723 2326098 2177418 2044802 1998065 2084353 2314006 2657945 3062150 
496.580 3460552 3798917 4040480 4171800 4197761 4137913 4021217 3879779 
500.437 3749684 3658854 3617623 3612678 3611041 3576462 3486671 3345674 
504.294 3180257 3026614 2909349 2833235 2779811 2721524 2637543 2530915 
508.151 2429810 2373603 2390295 2479926 2613209 2747432 2846643 2905313 
512.008 2954183 3052473 3258968 3603156 4071885 4610100 5139561 5575583 
515.865 5860854 5973712 5931957 5777271 5562527 5336518 5137482 4996719 
519.722 4934783 4956199 5042774 5153374 5231237 5216616 5072274 4792378 
523.579 4409154 3977477 3559458 3198715 2905513 2661512 2438440 2223109 
527.436 2028257 1887367 1834524 1885104 2024795 2213584 2401922 2558444 
531.293 2683682 2814726 3003125 3292854 3689630 4153602 4602632 4945809 
535.150 5109084 5060809 4819080 4440585 3998176 3553812 3151086 2808690 
539.007 2528382 2305778 2140823 2043571 2034449 2136394 2367406 2728226 
542.863 3194443 3711151 4195854 4559201 4716034 4618271 4274985 3762284 
546.720 3203889 2733794 2462598 2434808 2624009 2942407 3281503 3540817 
550.577 3666740 3666139 3594603 3527990 3528892 3628682 3816398 4047972 
554.434 4261232 4402426 4439045 4369156 4217668 4031451 3867009 3773782 
558.291 3788455 3921470 4154906 4443832 4730438 4955595 5073447 5065972 
562.148 4944267 4745109 4514503 4299111 4133430 4034260 4003426 4029076 
566.005 4088475 4148115 4169559 4114498 3954705 3687324 3342636 2985376 
569.862 2694018 2546646 2589142 2821129 3194543 3629952 4042119 4359685 
573.719 4550664 4620782 4607086 4556255 4509581 4488322 4490967 4499303 
577.576 4490900 4450226 4371532 4259191 4124767 3983028 3847218 3728061 
581.433 3631055 3557086 3503873 3469102 3451835 3455208 3484266 3542421 
585.290 3627145 3726758 3820944 3883992 3894991 3843575 3735079 3587988 
589.147 3429592 3287212 3179823 3117979 3105164 3141274 3225052 3352185 
593.004 3511322 3679037 3824822 3915385 3929528 3870519 3772445 3693105 
596.861 3691735 3810883 4053523 4379297 4713187 4975235 5104659 5081393 
600.717 4931030 4711278 4487351 4303695 4178458 4101385 4048005 3990953 
604.574 3913045 3810448 3688627 3557788 3429559 3317494 3235533 3200017 
608.431 3222982 3304806 3428022 3557153 3648763 3661828 3578233 3409989 
612.288 3200918 3008096 2886067 2868022 2955083 3118546 3311551 3488141 
616.145 3613547 3676163 3685052 3665470 3646892 3657384 3719272 3844177 
620.002 4032588 4269965 4528297 4765711 4935588 5000607 4941821 4768760 
623.859 4516780 4240386 3991087 3803529 3683816 3609203 3536909 3420976 
627.716 3232729 2966826 2645777 2310275 2011447 1792268 1677398 1668151 
631.573 1744360 1870396 2007885 2129035 2222243 2295785 2370738 2473928 
635.430 2623409 2820329 3046634 3271588 3462656 3595739 3664435 3679572 
639.287 3663967 3639775 3620296 3605495 3584280 3540984 3466096 3361468 
643.144 3241208 3125955 3036824 2989279 2988278 3030351 3105731 3202687 
647.001 3308679 3411124 3497292 3554347 3572119 3546730 3482663 3391588 
650.858 3289615 3193074 3112339 3051739 3009531 2982340 2967093 2962890 
654.715 2970096 2987577 3011266 3034588 3051105 3058746 3062150 3072194 
658.571 3099324 3150752 3223283 3305541 3381136 3436939 3469503 3486804 
662.428 3504441 3537243 3593367 3669848 3754463 3830705 3886232 3912410 
666.285 3906325 3867176 3793769 3681376 3526587 3331617 3110637 2882931 
670.142 2667346 2479460 2334226 2244291 2215516 2246922 2327197 2438973 
673.999 2563310 2687183 2805722 2921191 3036724 3151954 3258568 3343170 
677.856 3388215 3378999 3308412 3179456 3006461 2811224 2620542 2459433 
681.713 2346285 2292720 2302813 2373803 2496688 2658612 2841740 3025946 
685.570 3191605 3320398 3399169 3422445 3396364 3340131 3284875 3270720 
689.427 3334722 3502837 3781435 4151628 4569548 4974364 5307168 5521115 
693.284 5598842 5556453 5441589 5318036 5249514 5285971 5446455 5719790 
697.141 6068723 6446857 6807516 7118151 7365511 7554142 7701908 7830460 
700.998 7962223 8112727 8290943 8498222 8729635 8972673 9208569 9417471 
704.855 9579829 9684882 9735232 9750481 9764273 9816768 9947643 10182577 
708.712 10529854 10979004 11507276 12084259 12680192 13272777 13848452 
712.086 14403516 14943482 15482850 16044719 16657857 17357720 18176134 
715.461 19135200 20240050 21476266 22809064 24189086 25565144 26885612 
718.836 28107298 29196716 30122284 30853702 31362026 31623628 31632394 
722.211 31406478 30989294 30437228 29810692 29159686 28513158 27885006 
725.586 27277240 26689208 26122448 25580326 25064504 24569244 24081728 
728.961 23585102 23066506 22526194 21981392 21463838 21008446 20646542 
732.335 20393516 20245674 20181282 20169238 20176872 20176840 20152890 
735.710 20099304 20017794 19913922 19794506 19665380 19530192 19390578 
739.085 19246470 19096802 18939848 18774818 18601414 18419850 18230346 
742.460 18032982 17827732 17615850 17401934 17193810 17001772 16836344 
745.835 16703410 16602980 16526837 16462719 16396718 16316690 16213976 
749.209 16082678 15917186 15710596 15455210 15146345 14786514 14390707 
752.584 13985338 13603013 13276945 13028653 12865070 12776272 12742219 
755.959 12736111 12732870 12715469 12674188 12608555 12524788 12434457 
759.334 12351032 12287289 12252046 12246320 12261419 12281801 12291106 
762.709 12277813 12241719 12193872 12154378 12141532 12163476 12214557 
766.083 12277097 12330408 12359997 12365622 12361054 12365930 12393612 
769.458 12442300 12491437 12510431 12467464 12345578 12148108 11898860 
772.833 11629233 11369025 11137697 10941966 10782359 10660571 10584309 
776.208 10565466 10612626 10720816 10866299 11009283 11103941 11110808 
779.583 11012988 10819657 10563293 10284994 10023317 9802432 9627829 9489262 
783.440 9368309 9246071 9106711 8941317 8747012 8525997 8285167 8037316 
787.297 7799930 7591366 7428402 7321063 7268633 7259839 7275708 7294375 
791.154 7295218 7264050 7194952 7090701 6961930 6826499 6708406 6631792 
795.010 6619377 6683842 6824042 7023011 7252258 7480446 7680593 7839975 
798.867 7962527 8065096 8167892 8286181 8424534 8575740 8726897 8866507 
802.724 8991142 9104883 9216185 9330730 9447101 9555678 9644091 9703550 
806.581 9736045 9755225 9783860 9843509 9950321 10108028 10309729 10540684 
810.438 10784329 11026175 11253091 11452977 11611673 11712147 11739652 
813.813 11685937 11555694 11366814 11149528 10936903 10755628 10620604 
817.188 10529413 10464612 10399381 10309083 10177116 10001448 9795383 
820.563 9583622 9395056 9251690 9163220 9122344 9108504 9093515 9054539 
824.420 8981704 8884025 8785116 8717093 8706850 8763680 8874860 9008124 
828.277 9123156 9181799 9164541 9074568 8936988 8785555 8651143 8550124 
832.133 8479638 8420345 8346705 8240084 8094397 7919670 7734759 7559840 
835.990 7406527 7274023 7152036 7029476 6904595 6790384 6713049 6705243 
839.847 6792235 6978967 7244543 7546320 7834340 8062362 8206148 8266053 
843.704 8265681 8238058 8214758 8214758 8240827 8283850 8332080 8379335 
847.561 8428994 8491430 8577160 8690083 8821396 8951668 9053930 9104715 
851.418 9088608 9002779 8856666 8669023 8463116 8260447 8081434 7941131 
855.275 7847802 7801616 7794330 7810792 7833631 7851176 7861432 7874186 
859.132 7906004 7972449 8078261 8212463 8348732 8456528 8513021 8512853 
862.989 8472172 8421494 8394637 8410751 8468185 8543602 8604568 8621231 
866.846 8580201 8489268 8372917 8260211 8172687 8118298 8090548 8076472 
870.703 8064287 8050717 8042346 8050548 8086700 8157089 8262406 8399806 
874.560 8566177 8759082 8975616 9207283 9438364 9644464 9796501 9871133 
878.417 9856253 9757563 9594428 9397089 9195066 9010018 8855651 8736870 
882.274 8655503 8613119 8611801 8652597 8731866 8839657 8959616 9072436 
886.131 9162646 9220212 9244750 9242482 9223867 9197570 9169583 9141225 
889.987 9110602 9074229 9028556 8971421 8902862 8824947 8742549 8662500 
893.844 8591996 8536033 8495147 8465076 8436967 8401427 8352684 8291281 
897.701 8223707 8158845 8102532 8052337 7997052 7917713 7796826 7625793 
901.558 7410437 7171068 6938867 6746936 6618839 6565417 6581026 6647706 
905.415 6739466 6831615 6906245 6955331 6982200 6998833 7023617 7074569 
909.272 7165072 7300238 7473907 7668823 7860690 8025065 8141727 8200813 
913.129 8204561 8165800 8101992 8030768 7966037 7915553 7883060 7869698 
916.986 7875637 7899998 7938803 7983247 8018280 8025470 7987601 7893047 
920.843 7741674 7546489 7331677 7124820 6953445 6836765 6782274 6785706 
924.700 6833837 6910049 6998429 7089489 7181106 7277191 7383171 7502224 
928.557 7632065 7763835 7884915 7982944 8051966 8094633 8122112 8150235 
932.414 8194093 8261156 8348394 8443285 8528768 8589461 8616702 8611902 
936.271 8584831 8549618 8518124 8497782 8489572 8490079 8493728 8497478 
940.128 8500824 8507175 8521131 8548435 8593854 8659864 8747046 8852473 
943.985 8969527 9087864 9194965 9279411 9332287 9351145 9339295 9305239 
947.841 9258255 9206438 9154930 9106440 9064519 9035661 9029165 9055621 
951.698 9121261 9224070 9351652 9485164 9603507 9690608 9741196 9760308 
955.555 9759868 9751091 9739230 9720763 9686610 9627355 9541215 9436604 
959.412 9332897 9252299 9213782 9225661 9283304 9370002 9463016 9542130 
963.269 9593479 9613500 9607809 9588093 9565975 9549954 9542705 9540369 
967.126 9535051 9517439 9481202 9425768 9356967 9286283 9228098 9194389 
970.983 9191547 9218215 9266210 9323147 9375453 9411817 9423296 9402405 
974.840 9343594 9242110 9097034 8913448 8707053 8502107 8327317 8210369 
978.697 8166272 8193858 8273178 8373120 8457711 8495755 8469806 8375518 
982.554 8221343 8021757 7794633 7556502 7322545 7107743 6925333 6787254 
986.411 6701508 6670551 6691581 6757840 6861472 6993513 7144929 7304551 
990.268 7457255 7584251 7666328 7687811 7642991 7540117 7401236 7254549 
994.125 7129434 7047123 7015502 7031396 7083831 7160457 7251618 7352234 
997.982 7459884 7571405 7680357 7776485 7847802 7884646 7881676 7840075 
1001.839 7765252 7665552 7549490 7424087 7296902 7175447 7068204 6984254 
1005.695 6930249 6909813 6921596 6960213 7016478 7079688 7138933 7183431 
1009.552 7204149 7195390 7156617 7094002 7021765 6960449 6930148 6946173 
1013.409 7012336 7119330 7245048 7361804 7444311 7475087 7449603 7376229 
1017.266 7273316 7162546 7066318 7004019 6989304 7029712 7125090 7267521 
1021.123 7441581 7627108 7803438 7951323 8057502 8114955 8120762 8074514 
1024.980 7977612 7834205 7654052 7457120 7274125 7139809 7088445 7139539 
1028.838 7291309 7517799 7776721 8018922 8200509 8296617 8303574 8237754 
1032.695 8125420 7996613 7875873 7777463 7707810 7665822 7645554 7638675 
1036.553 7637124 7634696 7629401 7624175 7626636 7645015 7683291 7737120 
1040.410 7791530 7825738 7817033 7752266 7632976 7477716 7315806 7179051 
1044.267 7092621 7065645 7091678 7152003 7224261 7287636 7330498 7351661 
1048.125 7358907 7365781 7386609 7434502 7515236 7626636 7756752 7887682 
1051.982 7999009 8075155 8112154 8119918 8118568 8129978 8168062 8229649 
1055.840 8293206 8325359 8296381 8191359 8020373 7813626 7613283 7454895 
1059.697 7353076 7298789 7264623 7220016 7144558 7040017 6927959 6841276 
1063.555 6806944 6836563 6919071 7028163 7130277 7199331 7226653 7220960 
1067.412 7203273 7197310 7220824 7278674 7361973 7451390 7525283 7564763 
1071.269 7559773 7511832 7434941 7351661 7286423 7261288 7285648 7353818 
1075.127 7444446 7526800 7568842 7546927 7454862 7304484 7123810 6945163 
1078.984 6800650 6711131 6684414 6714698 6786884 6880222 6972031 7041869 
1082.842 7073626 7056653 6988597 6876519 6736639 6590311 6461520 6369550 
1086.699 6324429 6325942 6364842 6425536 6491150 6548565 6589974 6612514 
1090.557 6617191 6606627 6582305 6545201 6495421 6433338 6361447 6284020 
1094.414 6206775 6136668 6079408 6038248 6013454 6003073 6003543 6012883 
1098.271 6030588 6057937 6095402 6139188 6180122 6202809 6191314 6135089 
1102.129 6034889 5905792 5776297 5680376 5644860 5682592 5785498 5930010 
1105.986 6081323 6208422 6290911 6322883 6310981 6268455 6208052 6137475 
1109.844 6059987 5978448 5898134 5829890 5787747 5783483 5823073 5903206 
1113.701 6012916 6136097 6257766 6365750 6452171 6512608 6543721 6542779 
1117.558 6509009 6445949 6363497 6277263 6207245 6170275 6176694 6226538 
1121.416 6311183 6414978 6520647 6613726 6684649 6729505 6750571 6754778 
1125.273 6752590 6756393 6778908 6828821 6908567 7012269 7127851 7239994 
1129.131 7336328 7412425 7472255 7526429 7585398 7654221 7728823 7796961 
1132.988 7842370 7852052 7820947 7752603 7657088 7545882 7428570 7310380 
1136.846 7196131 7092756 7011797 6969304 6980045 7052140 7182589 7357761 
1140.703 7555828 7753783 7935429 8092945 8226813 8341740 8441257 8524915 
1144.560 8588751 8628227 8642558 8637386 8624103 8616262 8626198 8661993 
1148.418 8726254 8817373 8931069 9061136 9199161 9333777 9451265 9536541 
1152.275 9577932 9571124 9522554 9448082 9368987 9306694 9273995 9274435 
1156.133 9300873 9340040 9375961 9395801 9391299 9359507 9301482 9221938 
1159.990 9128705 9030992 8939322 8863395 8808649 8775277 8758237 8750123 
1163.848 8744037 8738391 8737309 8749785 8784981 8847434 8933471 9032007 
1167.705 9126268 9198992 9237778 9236391 9195439 9119907 9016851 8893730 
1171.562 8757256 8614572 8472137 8336133 8210538 8095815 7989964 7889369 
1175.420 7791699 7697659 7610754 7535835 7476300 7431638 7397191 7366051 
1179.277 7333497 7298385 7266375 7245520 7244947 7268667 7314391 7373330 
1183.135 7433525 7483581 7515405 7526193 7517765 7494773 7463188 7430256 
1186.992 7404269 7393855 7407235 7449670 7520057 7610451 7707102 7794060 
1190.849 7857181 7889976 7894160 7879617 7858732 7843112 7839266 7848105 
1194.707 7866493 7889605 7914642 7940119 7966137 7992461 8017268 8037046 
1198.564 8049130 8051493 8045350 8033874 8020711 8007751 7995431 7981965 
1202.422 7966239 7949163 7934416 7927566 7934113 7956452 7992799 8037216 
1206.279 8081941 8119750 8146015 8160161 8163673 8159520 8149829 8135008 
1210.137 8114652 8088050 8055341 8018517 7980345 7944472 7913495 7889335 
1213.994 7871723 7859441 7849388 7838254 7822633 7800065 7769975 7734557 
1217.851 7697861 7665316 7642115 7630818 7630953 7638203 7646397 7649567 
1221.709 7643025 7626029 7600402 7571067 7543792 7524777 7519214 7530272 
1225.566 7559031 7603605 7659752 7720087 7776755 7823477 7856877 7877897 
1229.424 7891630 7905598 7926621 7959287 8004172 8058886 8119682 8182816 
1233.281 8245926 8307019 8363290 8409636 8438791 8443420 8419096 8366667 
1237.139 8293949 8213374 8140174 8085012 8053519 8044473 8051932 8068472 
1240.996 8088894 8111546 8138047 8170999 8211990 8259130 8308640 8355318 
1244.853 8394637 8425244 8448352 8467441 8486869 8510217 8539750 8575571 
1248.711 8615586 8656585 8694072 8723888 8743226 8752760 8756208 8759927 
1252.568 8771828 8796882 8835666 8882841 8929242 8964791 8982787 8983159 
1256.426 8972368 8961882 8962051 8979573 9015261 9064316 9120110 9177908 
1260.283 9237033 9300331 9371018 9449234 9529497 9601643 9653746 9676716 
1264.141 9667501 9631251 9578507 9522215 9475072 9445983 9439854 9457530 
1267.998 9496441 9551308 9614889 9679122 9737164 9784944 9822665 9855101 
1271.855 9889742 9933133 9988598 10052852 10118269 10174606 10213411 
1275.231 10232171 10234682 10229627 10227625 10237497 10262907 10302569 
1278.606 10352007 10405557 10457824 10505210 10544927 10574124 10590217 
1281.981 10591066 10576602 10549510 10515698 10482059 10454396 10436170 
1285.356 10428126 10429653 10441057 10465427 10507552 10573445 10666275 
1288.732 10785110 10923549 11073112 11224426 11371031 11510202 11641554 
1292.107 11765830 11881493 11985163 12073595 12144701 12201847 12252080 
1295.482 12305524 12370634 12450279 12540476 12630590 12709839 12769585 
1298.857 12808247 12831965 12850736 12874286 12908179 12951429 12998233 
1302.233 13040057 13070686 13088715 13098140 13105926 13119245 13142672 
1305.608 13176416 13216071 13254057 13282445 13293787 13282548 13246097 
1308.983 13184272 13099267 12995160 12877904 12754741 12633183 12521106 
1312.358 12424979 12348918 12293935 12256715 12231495 12210195 12185489 
1315.734 12150937 12103474 12042935 11972901 11899304 11828442 11766648 
1319.109 11718376 11685460 11668442 11666229 11677394 11699416 11729780 
1322.484 11764673 11799433 11829838 11851528 11862083 11861539 11851561 
1325.859 11835456 11817240 11801476 11792249 11794769 11813938 11854422 
1329.234 11919022 12008087 12118465 12243867 12376054 12508351 12636799 
1332.610 12762521 12890840 13030326 13188814 13370833 13575458 13796322 
1335.985 14022569 14242155 14445580 14626687 14784148 14920540 15040134 
1339.360 15146379 15241119 15324312 15394717 15451227 15493700 15523438 
1342.735 15543356 15558466 15575260 15602152 15646975 15715646 15810167 
1346.111 15928494 16064627 16210433 16358595 16504500 16646530 16786642 
1349.486 16927972 17072140 17218044 17359962 17490924 17603566 17694080 
1352.861 17763870 17819308 17870990 17929586 18003970 18099232 18216318 
1356.236 18354692 18514686 18699782 18917282 19178070 19495084 19883466 
1359.612 20359242 20942028 21654480 22517818 23544804 24724810 26014786 
1362.987 27339518 28611814 29760124 30739240 31535794 32154154 32609638 
1366.362 32926430 33142730 33316388 33520002 33838852 34347028 35089264 
1369.737 36079872 37307916 38755768 40415548 42302064 44445268 46868308 
1373.113 49555044 52407452 55235628 57807872 59909388 61414228 62287872 
1376.488 62543108 62200568 61269864 59761952 57717004 55228440 52441024 
1379.863 49506100 46559856 43692012 40946376 38346520 35909640 33653316 
1383.238 31591412 29718928 28005610 26397568 24832152 23254984 21641210 
1386.614 20010992 18423308 16951676 15651064 14541127 13612415 12843501 
1389.989 12212751 11702717 11296855 10974519 10710491 10476017 10244044 
1393.364 9997786 9732386 9457056 9186470 8933369 8701475 8489133 8294793 
1397.222 8123226 7985172 7892675 7849893 7847633 7864874 7880698 7881912 
1401.079 7867910 7845811 7824489 7808026 7794532 7778273 7755369 7728924 
1404.936 7711150 7716377 7753345 7818416 7897771 7973663 8033368 8075763 
1408.794 8110567 8154287 8221579 8318435 8438859 8567663 8689171 8795496 
1412.651 8887711 8973687 9060933 9152189 9243837 9330357 9409075 9485096 
1416.509 9570988 9683730 9834833 10021147 10220400 10401146 10542313 
1419.884 10648720 10744114 10856685 11004390 11194608 11428960 11708879 
1423.259 12038029 12421365 12858074 13337281 13837300 14335567 14817025 
1426.634 15283504 15756084 16274171 16886564 17636450 18546636 19607070 
1430.010 20780652 22017956 23277708 24532850 25769374 26981784 28166158 
1433.385 29322858 30463812 31615786 32827430 34161416 35670768 37349688 
1436.760 39113360 40831840 42404348 43807556 45082816 46297800 47521480 
1440.135 48805928 50181104 51651648 53204152 54813612 56450448 58091056 
1443.511 59715300 61306684 62855208 64356164 65815316 67250728 68688888 
1446.886 70154480 71658640 73195328 74744080 76291032 77846488 79442344 
1450.261 81124432 82928672 84862688 86889480 88934768 90916280 92761712 
1453.636 94440816 95962920 97357096 98648640 99831640 100851744 101615768 
1457.012 102063160 102235280 102244040 102193056 102117264 102004776 
1459.905 101833744 101595912 101296888 100946464 100542904 100060240 
1462.798 99440904 98604144 97463784 95966264 94121104 91984432 89613488 
1466.173 87028040 84201160 81104904 77743320 74173512 70475840 66741184 
1469.548 63028632 59321272 55544100 51587876 47393304 43050756 38846852 
1472.923 35141928 32147982 29840468 28032258 26504514 25111086 23788436 
1476.299 22544166 21414684 20429530 19586134 18854574 18193028 17565440 
1479.674 16949540 16337814 15732447 15140168 14567475 14020585 13506988 
1483.049 13037873 12624519 12276825 11995892 11772129 11584516 11408006 
1486.424 11221740 11017134 10800124 10584886 10383702 10196111 10008094 
1489.800 9802397 9575764 9342308 9125897 8943752 8800060 8686433 8587467 
1493.657 8487308 8374606 8245758 8106245 7966711 7838085 7722448 7611934 
1497.515 7492683 7356244 7204485 7048335 6899949 6767768 6653459 6553341 
1501.372 6461823 6374694 6290979 6211447 6136534 6063851 5986813 5895044 
1505.229 5777137 5628547 5464003 5320417 5229695 5187207 5157935 5112102 
1509.087 5041233 4951440 4856404 4769966 4702368 4656416 4627782 4607923 
1512.944 4588903 4566769 4540752 4511423 4476572 4429070 4359049 4260261 
1516.802 4139920 4019511 3928124 3887469 3906726 3981423 4094729 4214757 
1520.659 4295865 4295430 4196590 4025030 3826694 3639808 3480892 3350983 
1524.516 3247217 3167340 3111972 3081570 3073095 3078000 3084474 3083406 
1528.374 3069424 3043597 3010198 2974766 2941106 2910683 2883865 2860217 
1532.231 2841573 2832035 2835970 2854981 2884465 2917688 2950179 2982873 
1536.089 3020775 3072427 3147314 3253426 3391288 3548133 3689262 3762652 
1539.946 3728763 3595004 3414964 3243045 3107500 3008463 2933033 2867221 
1543.804 2803254 2739596 2680349 2630476 2592942 2567877 2553678 2549612 
1547.661 2555678 2572810 2600342 2634043 2667313 2691651 2702553 2701753 
1551.518 2694718 2687850 2684449 2683782 2681515 2672781 2657112 2641510 
1555.376 2640377 2670380 2747132 2879996 3064485 3265345 3392891 3341300 
1559.233 3101927 2803421 2566143 2424746 2358778 2338323 2339189 2345486 
1563.091 2348584 2345019 2336258 2327597 2326131 2337724 2366107 2412517 
1566.948 2475927 2551645 2630943 2699152 2737362 2731894 2684816 2615942 
1570.806 2550579 2507486 2493623 2506619 2539013 2582309 2628676 2671547 
1574.663 2706287 2729193 2737962 2733261 2720491 2709588 2710988 2732027 
1578.520 2775609 2839038 2913685 2985309 3038225 3056510 3032453 2968928 
1582.378 2879796 2783612 2697919 2635209 2600008 2590675 2601342 2626376 
1586.235 2661079 2702220 2746832 2790849 2829467 2858149 2874793 2881263 
1590.093 2882731 2886000 2896373 2916621 2946577 2983941 3026180 3071860 
1593.950 3120381 3170711 3220445 3265979 3302970 3329079 3345841 3357995 
1597.807 3371319 3390086 3415132 3442817 3467299 3482997 3487606 3483832 
1601.665 3477552 3475548 3482128 3497693 3518904 3540851 3560193 3576028 
1605.522 3589325 3601051 3610406 3613814 3606263 3583678 3545194 3494487 
1609.380 3438142 3382338 3330248 3281703 3233130 3180490 3120548 3052306 
1613.237 2976668 2895139 2808857 2719524 2629042 2540880 2460466 2393226 
1617.095 2340189 2297151 2257514 2216282 2172090 2127237 2087150 2058352 
1620.952 2046766 2056254 2085652 2126571 2164665 2185844 2182413 2155874 
1624.809 2112287 2058418 1998265 1932861 1863707 1794897 1734314 1692666 
1628.667 1678696 1696026 1741267 1806542 1881976 1958089 2029123 2090979 
1632.524 2141755 2179583 2200396 2196800 2158537 2077661 1958256 1822646 
1636.382 1701780 1615502 1566616 1546032 1543040 1548726 1557704 1567547 
1640.239 1577324 1587633 1599638 1615502 1638051 1670613 1716583 1778028 
1644.097 1854057 1938752 2020368 2078560 2091079 2044736 1949436 1835589 
1647.954 1734746 1664094 1623617 1606489 1605624 1618528 1648794 1707668 
1651.811 1810701 1965712 2144385 2271703 2284793 2195701 2057586 1913458 
1655.669 1783984 1676800 1593353 1531767 1488809 1460749 1443927 1434884 
1659.526 1431527 1432291 1435583 1439572 1441101 1436912 1425477 1408190 
1663.384 1389808 1376679 1374152 1385387 1411481 1451905 1504801 1566915 
1667.241 1632330 1692600 1736676 1753110 1735245 1685282 1614138 1535691 
1671.099 1460516 1393199 1333370 1279166 1228390 1181077 1140844 1113836 
1674.956 1107192 1123868 1159980 1206162 1252681 1292625 1322170 1338887 
1678.813 1342444 1334101 1317982 1300667 1290996 1296878 1324396 1377177 
1682.671 1454166 1545800 1628705 1674937 1673473 1639980 1599306 1567281 
1686.528 1547163 1536157 1528941 1521094 1509922 1495226 1478868 1462544 
1690.386 1446985 1430596 1411116 1386684 1357134 1324230 1291229 1263049 
1694.243 1245869 1245370 1265208 1302927 1350985 1401177 1450908 1502740 
1698.100 1562160 1632863 1712658 1787178 1832861 1829800 1780025 1702745 
1701.958 1617730 1536822 1464406 1403636 1358198 1333237 1334434 1363217 
1705.815 1414074 1474745 1532200 1576725 1603928 1615003 1613240 1604128 
1709.673 1592289 1581414 1572269 1563989 1552949 1534760 1505134 1460749 
1713.530 1400312 1325892 1242446 1156624 1075768 1006518 954181 924329 
1717.388 922469 951690 1009939 1090251 1183170 1280196 1374452 1459086 
1721.245 1526879 1570174 1582046 1558502 1502009 1422053 1332207 1246733 
1725.102 1177455 1130213 1106594 1104069 1117689 1140545 1165661 1186160 
1728.960 1196692 1194333 1179216 1154332 1124998 1096662 1076134 1071018 
1732.817 1091281 1146126 1236232 1345634 1447118 1520495 1558768 1565186 
1736.675 1545168 1503738 1445689 1377177 1307713 1247730 1206726 1187987 
1740.532 1188120 1198885 1211744 1219685 1218123 1204567 1178751 1142804 
1744.390 1100349 1056769 1017876 988153 970917 966235 971548 981511 990710 
1748.729 995326 995459 994761 997684 1007714 1024020 1042321 1057732 1066900 
1753.069 1069192 1065538 1057234 1044114 1025150 997950 961520 918120 873861 
1757.408 837275 814601 807995 815099 830303 846404 856829 857095 846736 
1761.748 829473 811481 797672 789705 785755 782070 774635 760628 738456 
1766.088 708054 672478 636805 608435 595362 603126 633023 681505 741244 
1770.427 801223 847400 865594 846969 794153 721927 649813 591845 553757 
1774.767 535710 535345 549809 575787 609961 646893 680642 705167 714891 
1779.106 707324 683961 651174 618091 592442 577744 571938 569881 565833 
1783.446 556478 542278 526852 514744 509071 509801 514478 519786 524099 
1787.786 527715 533387 543373 558966 578375 597585 611189 615304 610857 
1792.125 603724 601700 608468 621873 634980 640688 633885 614441 586205 
1796.465 555681 528677 507976 491888 476331 456130 429828 401040 378290 
1800.804 370961 384027 415368 456396 495271 521411 529440 519587 496631 
1805.144 466744 435367 404489 372752 336009 290019 232663 165072 92453 22631 
1809.966 -35054 -72590 -84781 -70304 -31476 26673 98584 179126 263860 348975 
1814.787 430790 504957 567592 615005 644006 652269 638033 599841 537700 
1819.127 453775 352921 243006 134445 36581 -44463 -107606 -158186 -205448 
1823.467 -259825 -327075 -404146 -476934 -526214 -532402 -485241 -383820 
1827.324 -234790 -48704 160928 375836 575156 736132 842022 887407 878542 
1831.664 827814 747616 649614 543075 436462 337966 254444 190728 150023 
1836.003 134147 144223 181015 242940 324602 415036 500877 566995 602197 
1840.343 600737 562881 493679 402234 299867 198684 111410 51526 29987 53680 
1845.165 122679 230309 364329 509237 647557 760528 832063 850920 815000 
1849.504 731386 615138 483661 352026 232795 134412 62495 20510 8648 23989 
1854.326 59910 108593 162221 214794 262865 305106 341083 369900 388604 
1858.666 392617 377627 341580 287632 224706 166828 127849 118271 140676 
1863.005 189435 250698 306830 341182 340652 300497 223878 121917 8780 -99854 
1867.827 -190677 -256779 -298865 -323301 -336180 -339855 -332240 -308964 
1871.684 -267176 -208992 -142718 -81535 -39195 -26605 -48339 -101047 -175409 
1876.024 -259726 -343431 -418281 -478357 -518602 -532237 -512877 -456943 
1879.881 -367234 -255222 -139538 -40487 27966 60639 64848 53547 41949 38138 
1884.703 39928 36515 16434 -26771 -88458 -155039 -207667 -231710 -225054 
1889.043 -201606 -186902 -204190 -264428 -360183 -468957 -564038 -625153 
1892.900 -643516 -623863 -580584 -532932 -497454 -482726 -488353 -507945 
1896.758 -533958 -560266 -583065 -599477 -606128 -599113 -575852 -536837 
1900.615 -486499 -432117 -380245 -333233 -287408 -234161 -164976 -76466 
1904.473 24553 121486 189568 205844 153802 30848 -150833 -366539 -584488 
1908.812 -774380 -909504 -972025 -955428 -865294 -716859 -534024 -347701 
1912.670 -189485 -90347 -73551 -148680 -307838 -526710 -770874 -998736 
1916.527 -1170703 -1256280 -1241214 -1134484 -966537 -782087 -619628 -506390 
1920.384 -453964 -460418 -511884 -585183 -654169 -692975 -688277 -642258 
1924.242 -572079 -501128 -452309 -440558 -469123 -528894 -602985 -672828 
1928.099 -721722 -739452 -722846 -672464 -589849 -475511 -329492 -154609 
1931.957 40259 235613 404423 515274 541416 470658 307261 71409 -208131 
1936.296 -498447 -770312 -1001711 -1177444 -1289185 -1333715 -1309502 
1939.672 -1216434 -1059162 -850545 -613540 -385840 -209456 -118736 -131224 
1943.529 -240221 -417652 -621117 -806528 -930532 -960123 -878819 -688443 
1947.386 -411694 -88160 230210 491921 658939 712734 658939 522838 339590 
1951.726 140080 -55396 -241612 -427616 -626311 -845486 -1079952 -1309006 
1955.583 -1502412 -1630047 -1670879 -1620837 -1493695 -1316472 -1117596 
1958.959 -922630 -746133 -589187 -441650 -285024 -104160 107765 340055 
1962.816 562516 728665 791497 715688 497461 169911 -196904 -514564 -706174 
1967.156 -729330 -601628 -391534 -200050 -113899 -180244 -396698 -719704 
1971.013 -1077010 -1394061 -1618065 -1722762 -1711409 -1599743 -1407503 
1974.388 -1151272 -851339 -542959 -277872 -118173 -119994 -308666 -670380 
1978.246 -1149520 -1670813 -2154522 -2543856 -2817933 -2981678 -3053377 
1981.621 -3050383 -2983126 -2858061 -2685543 -2486305 -2290206 -2129596 
1984.996 -2025458 -1979910 -1971236 -1961340 -1910871 -1787938 -1580265 
1988.371 -1296189 -956155 -581212 -193492 186684 537766 830303 1032888 
1992.229 1121044 1085235 937445 711008 452183 204352 -1756 -155072 -262243 
1996.568 -338928 -399445 -449760 -484977 -497454 -485407 -460484 -447642 
2000.426 -477430 -573734 -744612 -975826 -1236325 -1492506 -1719264 -1907902 
2004.283 -2063317 -2193557 -2294622 -2346464 -2311728 -2154621 -1860824 
2007.659 -1449842 -978537 -526511 -177529 15473 40292 -65136 -234724 -389547 
2011.998 -467203 -439466 -312242 -120293 86786 257925 354712 354082 243901 
2016.338 27833 -278170 -638189 -1002968 -1311616 -1508950 -1558575 -1450040 
2020.195 -1204870 -867146 -497189 -144672 161227 418983 646462 866623 
2024.053 1089553 1305054 1487413 1610247 1662431 1656144 1621555 1590692 
2027.910 1582711 1590260 1584839 1530371 1407526 1228889 1038501 898164 
2031.767 867752 975434 1206361 1501842 1783352 1975331 2025661 1916187 
2035.625 1657641 1282888 832793 356171 -96608 -476570 -733597 -827495 
2039.482 -739187 -480475 -97204 336275 737228 1043118 1216362 1252681 
2043.340 1171508 1001271 769689 497129 199976 -103829 -388951 -623003 
2047.197 -775538 -827925 -783840 -670446 -528795 -399147 -305487 -252209 
2051.054 -227206 -209456 -180708 -131985 -65732 6593 69421 106141 102396 
2055.394 47947 -61757 -222570 -417818 -615227 -771172 -839665 -782847 
2059.251 -589749 -283104 79396 425782 683994 805373 777390 624760 399913 
2063.591 161657 -36744 -165936 -222471 -223961 -195711 -163518 -146427 
2067.448 -152952 -186040 -243301 -318897 -403285 -482296 -539186 -556824 
2071.306 -525949 -447277 -336941 -220020 -125526 -77858 -86901 -145831 
2075.163 -231975 -318036 -378226 -399743 -386767 -358230 -340484 -357799 
2079.021 -424206 -538094 -683017 -834076 -966338 -1060649 -1108673 -1113465 
2082.878 -1085604 -1039329 -987265 -941840 -912050 -906991 -934831 -999794 
2086.736 -1099948 -1222051 -1343691 -1434981 -1466650 -1420714 -1295660 
2090.111 -1109598 -893302 -684870 -511917 -388157 -309229 -257838 -210913 
2093.968 -148680 -62784 41353 146543 229845 266147 236243 130368 -49433 
2098.308 -288104 -558843 -825346 -1051824 -1204870 -1264540 -1228362 
2101.683 -1111813 -943691 -756652 -581047 -436321 -330220 -261680 -223895 
2105.541 -208992 -207502 -209522 -202534 -172064 -106413 -1557 133186 275033 
2109.880 390494 446677 422465 313959 136865 -78884 -299858 -502816 -678981 
2114.220 -835102 -986108 -1145951 -1317760 -1491582 -1646288 -1758239 
2117.595 -1809386 -1791898 -1709264 -1573332 -1399247 -1200111 -987463 
2120.970 -771403 -562979 -376570 -229094 -135165 -105022 -138610 -224060 
2124.828 -339557 -460881 -566322 -643615 -693206 -726750 -763234 -821013 
2128.685 -912182 -1037148 -1184185 -1330346 -1450965 -1523676 -1537742 
2132.060 -1497195 -1421606 -1341114 -1286245 -1281785 -1337679 -1449115 
2135.436 -1596079 -1753454 -1896850 -2009133 -2082707 -2118253 -2119276 
2138.811 -2088280 -2024435 -1924858 -1788202 -1619550 -1434386 -1256346 
2142.186 -1117960 -1047262 -1062302 -1161648 -1323046 -1508125 -1671506 
2145.561 -1777939 -1809122 -1770350 -1684378 -1583105 -1492605 -1421441 
2148.937 -1363807 -1303688 -1231567 -1153717 -1094825 -1092974 -1180649 
2152.312 -1367869 -1629420 -1908990 -2136685 -2247092 -2210469 -2040398 
2155.687 -1798497 -1562867 -1408098 -1375268 -1458494 -1608425 -1753685 
2159.062 -1834759 -1821034 -1719825 -1559929 -1377679 -1199979 -1041478 
2162.438 -911124 -814399 -759695 -755527 -808248 -916778 -1068516 -1243065 
2166.295 -1415430 -1560226 -1661174 -1706359 -1690748 -1613278 -1475930 
2169.670 -1285915 -1059195 -821675 -604441 -443868 -371009 -404113 -546566 
2173.528 -783112 -1084976 -1413613 -1734346 -2020346 -2256981 -2440740 
2176.903 -2574391 -2662491 -2704773 -2697101 -2631502 -2502217 -2309520 
2180.278 -2065131 -1791700 -1521860 -1286080 -1106459 -988554 -923986 
2183.653 -893864 -879348 -871907 -874586 -902163 -970867 -1094164 -1273856 
2187.511 -1501157 -1757513 -2021797 -2273857 -2494541 -2668090 -2776189 
2190.886 -2799268 -2720052 -2529560 -2234500 -1861550 -1457404 -1075589 
2194.261 -766111 -564568 -483024 -512810 -626311 -789462 -963892 -1115250 
2198.119 -1217425 -1253241 -1217690 -1120538 -988224 -857688 -769783 -757809 
2201.976 -833878 -983166 -1166506 -1333616 -1433891 -1434618 -1330841 
2205.351 -1144662 -917208 -693140 -512546 -398783 -357799 -379318 -444232 
2209.209 -528067 -606691 -662274 -683944 -670711 -632035 -585348 -551794 
2213.066 -548551 -584587 -657742 -756552 -865988 -975826 -1084877 -1203052 
2216.924 -1346300 -1531105 -1765301 -2044982 -2351276 -2655115 -2922671 
2220.299 -3118551 -3215159 -3192694 -3044428 -2778033 -2420674 -2016388 
2223.674 -1618692 -1284824 -1059625 -963396 -989877 -1107384 -1269661 
2227.049 -1425668 -1536652 -1580728 -1557056 -1479760 -1374277 -1268769 
2230.425 -1188546 -1154279 -1177245 -1257734 -1382435 -1527804 -1661042 
2233.800 -1748603 -1766951 -1707251 -1579539 -1407503 -1223670 -1055890 
2237.175 -922432 -829976 -776497 -755924 -761712 -789231 -831629 -877000 
2241.032 -909305 -908413 -858912 -756619 -613308 -454824 -311447 -210416 
2244.890 -163883 -167294 -201176 -241513 -268302 -274031 -263898 -252871 
2248.747 -257110 -284958 -334425 -392063 -437811 -451051 -417486 -334458 
2252.605 -211641 -69741 63853 160199 198816 171900 87913 -30747 -152290 
2256.944 -246414 -294031 -291382 -250818 -194685 -147023 -123042 -126156 
2260.802 -147686 -174018 -191969 -194718 -182364 -159411 -129866 -93295 
2264.659 -45722 16401 92520 173358 243669 286306 289257 251129 182573 102893 
2269.481 32240 -12060 -20642 8581 73563 171403 299137 451686 620115 787348 
2274.303 930073 1025316 1054212 1011002 904108 755483 592476 439778 314091 
2278.642 220264 154896 110184 80191 63456 62462 80755 120525 179457 252322 
2283.464 331632 410990 486116 554951 616996 670985 714559 744961 760362 
2287.804 762121 755018 747318 747782 764046 799663 852613 917621 985496 
2292.143 1047569 1096296 1126692 1136990 1127987 1102774 1065571 1022061 
2296.001 978821 941762 916957 908291 917190 942392 979452 1021530 1060024 
2300.340 1087294 1096164 1082976 1048100 996223 935884 877612 833424 812942 
2304.680 823166 866656 941861 1043018 1161641 1288504 1414141 1529905 
2308.537 1630069 1711161 1772572 1816124 1846104 1867634 1885570 1904406 
2312.395 1925539 1948770 1971536 1990542 2003158 2008551 2008451 2007053 
2316.252 2010448 2023697 2051161 2093575 2148748 2211420 2275466 2334692 
2320.110 2385397 2426278 2459366 2488024 2515618 2544879 2576676 2609375 
2323.967 2640210 2666646 2686750 2700919 2711955 2725325 2747966 2786413 
2327.824 2844442 2921024 3008296 3091815 3154757 3181926 3164736 3106132 
2331.682 3020241 2929730 2857749 2823364 2834836 2888568 2969862 3058379 
2335.539 3133564 3179523 3189069 3165771 3121116 3072194 3037958 3034221 
2339.397 3069958 3144845 3247818 3360533 3458414 3519272 3529293 3485669 
2343.254 3398401 3286077 3170477 3066921 2982406 2914052 2854447 2796985 
2347.112 2740897 2691451 2658245 2651078 2676114 2734395 2821163 2925994 
2350.969 3035656 3139805 3233163 3318529 3403911 3497927 3603390 3715328 
2354.826 3821111 3907763 3967345 4001587 4021284 4042420 4079611 4139117 
2358.684 4218070 4304599 4384853 4445774 4481359 4492406 4486548 4472956 
2362.541 4460436 4452937 4447983 4435731 4401857 4331271 4212683 4044393 
2366.399 3836989 3613413 3403510 3236969 3135900 3108000 3144578 3224117 
2370.256 3319797 3403978 3456210 3465729 3431362 3358363 3255196 3130327 
2374.114 2990714 2840639 2682782 2519150 2351482 2182314 2015541 1856187 
2377.971 1710529 1583675 1479832 1399614 1340350 1295516 1258064 1220981 
2381.828 1180179 1135429 1089487 1046904 1011234 983670 961918 941728 917787 
2386.168 887042 848994 806170 762287 721197 684591 652103 622736 596026 
2390.508 574095 561852 566331 593139 645499 720832 811348 904539 986924 
2394.847 1046539 1075802 1072679 1041258 990245 930505 874259 832229 811647 
2399.187 815531 841956 884053 930837 970951 993699 992171 965106 916957 
2403.526 856099 792394 734772 689304 657711 638531 628808 625888 628078 
2407.866 635644 649614 670288 696671 726043 754056 776792 791099 796145 
2412.206 793389 786153 778518 774170 775863 784659 800228 820245 841026 
2416.545 857759 865129 858622 835515 796111 744331 687180 633388 591082 
2420.885 567094 564009 580863 613578 656384 702977 747915 787647 820278 
2425.224 845641 865361 881962 897965 914866 932464 947971 956970 954247 
2429.564 937179 906166 866490 826585 795547 780311 782668 799099 822768 
2433.904 846869 867652 886477 908756 940865 986127 1041590 1098356 1143800 
2438.243 1166358 1160611 1129615 1084670 1040859 1012463 1008610 1029368 
2442.101 1067664 1111012 1147156 1166292 1163867 1140711 1101977 1054344 
2445.958 1004990 959693 922635 896006 880700 876616 883124 899957 926520 
2450.298 962416 1006252 1054677 1102176 1141674 1165694 1168551 1148618 
2454.155 1109052 1057334 1002798 954048 916725 891457 875155 862739 849890 
2458.495 834254 816029 798203 783896 775631 774900 781074 793555 810983 
2462.834 831930 855036 878642 901186 921440 939836 958000 979020 1005821 
2467.174 1039996 1080585 1123669 1163701 1194732 1212574 1215399 1204268 
2471.031 1181675 1150445 1113404 1072015 1027475 981610 936648 895907 862739 
2475.371 839931 829009 830137 841624 860747 884253 908391 929741 946776 
2479.710 960291 973906 993666 1026412 1076831 1144498 1222409 1297311 
2483.568 1353279 1375183 1354176 1290764 1194998 1082511 972212 880401 
2487.425 817124 785887 784493 806900 845276 891955 939670 981345 1012031 
2491.765 1028305 1030198 1021330 1008511 1000739 1005522 1028172 1069457 
2495.622 1126924 1195430 1269628 1344670 1417232 1484620 1544769 1595182 
2499.480 1633794 1658705 1669548 1667320 1654115 1632264 1603729 1569708 
2503.337 1530936 1488211 1443162 1397753 1354741 1316221 1284051 1259161 
2507.195 1242380 1234704 1237362 1250953 1274812 1305785 1338954 1368269 
2511.052 1388312 1396456 1393631 1383426 1370662 1358996 1349589 1340549 
2514.909 1328185 1309142 1282256 1250255 1218422 1193569 1182106 1187588 
2518.767 1210448 1246866 1290797 1333636 1366906 1383626 1379903 1356137 
2522.624 1318015 1275211 1239057 1219718 1223041 1247995 1287308 1329249 
2526.482 1362619 1378606 1374884 1354774 1325759 1296081 1272287 1257532 
2530.339 1252249 1255040 1264876 1281492 1305087 1335431 1370596 1406395 
2534.197 1437976 1461547 1475610 1482160 1485983 1492865 1506730 1528475 
2538.054 1555177 1581414 1601500 1610779 1608019 1595082 1575395 1553148 
2541.911 1531302 1510820 1490704 1469326 1445157 1418562 1391371 1367372 
2545.769 1351318 1347861 1360192 1389775 1436048 1496523 1566882 1642009 
2549.626 1715751 1781122 1831563 1861178 1866536 1847934 1810701 1764221 
2553.484 1719577 1688076 1677066 1687677 1715419 1751879 1787910 1816257 
2557.341 1834791 1845039 1850629 1853757 1853824 1846770 1828136 1794930 
2561.198 1749517 1700051 1658772 1637253 1643140 1676035 1728392 1786978 
2565.056 1837685 1870662 1882009 1874422 1854889 1832229 1813263 1802150 
2568.913 1800453 1808438 1827005 1858050 1904340 1968541 2051228 2150113 
2572.771 2258946 2368539 2468130 2546512 2595009 2608475 2587009 2535514 
2576.628 2464131 2385963 2313872 2259246 2228937 2223909 2239995 2269071 
2580.486 2302214 2330928 2350616 2360610 2364341 2368139 2378734 2401323 
2584.343 2437407 2483125 2530448 2568710 2586976 2579009 2545446 2495056 
2588.200 2442472 2405687 2400323 2434175 2505220 2601575 2706187 2800253 
2592.058 2869723 2908815 2919956 2911884 2895573 2880696 2872191 2870490 
2595.915 2871957 2872458 2868655 2859817 2847610 2835503 2827132 2824764 
2599.773 2829500 2841240 2858783 2881497 2908982 2941239 2978069 3018706 
2603.630 3061182 3102160 3137803 3164336 3179756 3183928 3178988 3168942 
2607.488 3158395 3150986 3148483 3150085 3153622 3156025 3155091 3150552 
2611.345 3144211 3139338 3139405 3147448 3164369 3189302 3219310 3250322 
2615.202 3278465 3300199 3313521 3318629 3317427 3313854 3311584 3314021 
2619.060 3322001 3333453 3342602 3343270 3329347 3298596 3253393 3201152 
2622.917 3152354 3116977 3102694 3111604 3140639 3182627 3229425 3273924 
2626.775 3311350 3340131 3360700 3374391 3382205 3385444 3385210 3383207 
2630.632 3381971 3383874 3391087 3403677 3420909 3439845 3457980 3473979 
2634.490 3487907 3501768 3518035 3538846 3564268 3592899 3621532 3646558 
2638.347 3665470 3677600 3684116 3688460 3694576 3706005 3724318 3748481 
2642.204 3774717 3797178 3809613 3807473 3789791 3759209 3722246 3687592 
2646.062 3662496 3651704 3655078 3668277 3684617 3697450 3702730 3700123 
2649.919 3692370 3684384 3681075 3685453 3698886 3721110 3751021 3787051 
2653.777 3827897 3871254 3913847 3951295 3979885 3997173 4004195 4005098 
2657.634 4007038 4017204 4040581 4078742 4128848 4185048 4240085 4288470 
2661.491 4326485 4352757 4367483 4371298 4364504 4347703 4322402 4291782 
2665.349 4261132 4236706 4223222 4223691 4237074 4259659 4285793 4310589 
2669.206 4331204 4347468 4361124 4374678 4389506 4405472 4420300 4431179 
2673.064 4435631 4432551 4422810 4408082 4391079 4374210 4358881 4345896 
2676.921 4335086 4325883 4317349 4308782 4298977 4287366 4273278 4256781 
2680.779 4238747 4220512 4204252 4192710 4188527 4194282 4211579 4240252 
2684.636 4277996 4320829 4362596 4396702 4418291 4424819 4417555 4400217 
2688.493 4378829 4358346 4341512 4327656 4314036 4297070 4273813 4244703 
2692.351 4212750 4182940 4159389 4144637 4138147 4136976 4136842 4134400 
2696.208 4127677 4117040 4103694 4089411 4075263 4061751 4049510 4039845 
2700.066 4035163 4038239 4051250 4074661 4106169 4141291 4174677 4201709 
2703.923 4219910 4229747 4233962 4236137 4239249 4245171 4254071 4265180 
2707.781 4277929 4292351 4309552 4330601 4356271 4386192 4419195 4453372 
2711.638 4487117 4519894 4552070 4585319 4620448 4657822 4696339 4733151 
2715.495 4764706 4787889 4800820 4804070 4800552 4795393 4795024 4805142 
2719.353 4829901 4870377 4924629 4987334 5052194 5112906 5164406 5204577 
2723.210 5233719 5253807 5267222 5275774 5279967 5278893 5271850 5258536 
2727.068 5239990 5218662 5197468 5178523 5163098 5150525 5138890 5126116 
2730.925 5110492 5091685 5070363 5047200 5022797 4996719 4967392 4933041 
2734.782 4892392 4845347 4793584 4739884 4687932 4640575 4599786 4565764 
2738.640 4537036 4512026 4488456 4464989 4441623 4419195 4399681 4384920 
2742.497 4376787 4375482 4379967 4387665 4394995 4398308 4394526 4382443 
2746.355 4362563 4337462 4310823 4287332 4271136 4265816 4273780 4295999 
2750.212 4331873 4378695 4432651 4487854 4537773 4576144 4598112 4601527 
2754.070 4587530 4560742 4527058 4492976 4464085 4443129 4430476 4425421 
2757.927 4426358 4432618 4444836 4463817 4490398 4523509 4560273 4595466 
2761.784 4624667 4643622 4651325 4650052 4644895 4641914 4646536 4661975 
2765.642 4688166 4723202 4763065 4804237 4844543 4883378 4921378 4960254 
2769.499 5001009 5043948 5087997 5131782 5173560 5212022 5246932 5278659 
2773.357 5308745 5338732 5370331 5405120 5444005 5487256 5534941 5586155 
2777.214 5639792 5694107 5747522 5798358 5845338 5888058 5927289 5964977 
2781.072 6004417 6049874 6105315 6174039 6257732 6355495 6464211 6579041 
2784.929 6695114 6808054 6915401 7017051 7114446 7209842 7304854 7400056 
2788.786 7494234 7585128 7670543 7749263 7821621 7889740 7956655 8025402 
2792.644 8098481 8176638 8259232 8345016 8433419 8524274 8618797 8719256 
2796.501 8827888 8945579 9071624 9203087 9335672 9464168 9584470 9694606 
2800.359 9795451 9889980 9983749 10083169 10193398 10319093 10462338 
2803.734 10623966 10802434 10995384 11199232 11409842 11622869 11835014 
2807.109 12043616 12248468 12450892 12654299 12862101 13077651 13302328 
2810.484 13535667 13775527 14019147 14264821 14512141 14762140 15016158 
2813.860 15275060 15538204 15803397 16068444 16332516 16597886 16870272 
2817.235 17157820 17469156 17810712 18184530 18588202 19016240 19461816 
2820.610 19919334 20386362 20863558 21354156 21862382 22392658 22948944 
2823.985 23535182 24156018 24817138 25524416 26283500 27097622 27967586 
2827.361 28891878 29868294 30895824 31977326 33119738 34334440 35634404 
2830.736 37032836 38541100 40167280 41917020 43794508 45804212 47952120 
2834.111 50246600 52696708 55313188 58105376 61080620 64242856 67591704 
2837.486 71122432 74824656 78684584 82684096 86801664 91016208 95305896 
2840.862 99651584 104039560 108460920 112912712 117396720 121917152 
2843.755 126476272 131071792 135693040 140321616 144930640 149485792 
2846.648 153951392 158287120 162450112 166395936 170073312 173426992 
2849.541 176399120 178929424 180962160 182450528 183358128 183666496 
2852.434 183374160 182500416 181081552 179172912 176841728 174158224 
2855.327 171196560 168024288 164699872 161277456 157802800 154317824 
2858.220 150864176 147478656 144197408 141053744 138075280 135287424 
2861.113 132710784 130360784 128248376 126377808 124745104 123338888 
2864.006 122140912 121128128 120273864 119553168 118941328 118414248 
2866.899 117949656 117522392 117104576 116667256 116177296 115602440 
2869.792 114912808 114081368 113089496 111927192 110596296 109110768 
2872.685 107498040 105796704 104049496 102303496 100601176 98977152 97459640 
2876.061 96068608 94819120 93724008 92794288 92039264 91466264 91078160 
2879.436 90873720 90847784 90993944 91305016 91775672 92402160 93180312 
2882.811 94105384 95169080 96359880 97665296 99071960 100568672 102147784 
2886.186 103804016 105533240 107331496 109192144 111106744 113065160 
2889.079 115056200 117069776 119097080 121130352 123164088 125192792 
2891.972 127212424 129219832 131212144 133186712 135141440 137074112 
2894.865 138983168 140868384 142731760 144576720 146408400 148231728 
2897.759 150049984 151865728 153680272 155496032 157318272 159156128 
2900.652 161020464 162923120 164872544 166872608 168922352 171018112 
2903.545 173155680 175334288 177556208 179826720 182151568 184534576 
2906.438 186976336 189476304 192033952 194651744 197335936 200095152 
2909.331 202938576 205872160 208897792 212013616 215215504 218498960 
2912.224 221859776 225293072 228789696 232333888 235902128 239460800 
2915.117 242973088 246398976 249697904 252832656 255765232 258456736 
2918.010 260868544 262958944 264685776 266009872 266892784 267301056 
2920.903 267207392 266591872 265446192 263775888 261601632 258955392 
2923.796 255879664 252421760 248628128 244547200 240226992 235715600 
2926.689 231064272 226322192 221532912 216733664 211949296 207195456 
2929.582 202480720 197810320 193189792 188626848 184130064 179709040 
2932.475 175372496 171127680 166981648 162941920 159017184 155217936 
2935.368 151554112 148034976 144668720 141460208 138413696 135532576 
2938.261 132819816 130279112 127914176 125728312 123725432 121909736 
2941.155 120285976 118860288 117637976 116623224 115816968 115215976 
2944.048 114810896 114587904 114530184 114618400 114833120 115156656 
2946.941 115570576 116057296 116597560 117169488 117749720 118311944 
2949.834 118828320 119272264 119617016 119837976 119915144 119831776 
2952.727 119576912 119145816 118538944 117761192 116820728 115727472 
2955.620 114492360 113126464 111641824 110049312 108359016 106578664 
2958.513 104712888 102764152 100732984 98621104 96432280 94173288 91853080 
2961.888 89481392 87066264 84614808 82132584 79625952 77103064 74575040 
2965.263 72054136 69552800 67081480 64647376 62255400 59909920 57615856 
2968.639 55380708 53212844 51120668 49109604 47181196 45332184 43556716 
2972.014 41848604 40203480 38619864 37099776 35646992 34264660 32954168 
2975.389 31713332 30537354 29419254 28351490 27326814 26340038 25387990 
2978.764 24470028 23588006 22745022 21945496 21193114 20490450 19837060 
2982.140 19229500 18662390 18128180 17619888 17131384 16659096 16201664 
2985.515 15759829 15335262 14929320 14542805 14174812 13824267 13489591 
2988.890 13169653 12864457 12574037 12299082 12039392 11793645 11560083 
2992.265 11335728 11118218 10905983 10699522 10501034 10313495 10140451 
2995.641 9984190 9845339 9722254 9611332 9508430 9408601 9308015 9203730 
2999.498 9094158 8978998 8859033 8735653 8610854 8486835 8365891 8250013 
3003.355 8140815 8039477 7946328 7861668 7784986 7715804 7652636 7593287 
3007.213 7534824 7473503 7406190 7330363 7245789 7153720 7057293 6960550 
3011.070 6866690 6778167 6695754 6619445 6549103 6485129 6428496 6379839 
3014.928 6338920 6303619 6270203 6234370 6192154 6142852 6087607 6030790 
3018.785 5976903 5929203 5887823 5849469 5808667 5759005 5696893 5621431 
3022.643 5535679 5444844 5355001 5270878 5195054 5128127 5069324 5017601 
3026.500 4971883 4931667 4896245 4864613 4835463 4807454 4779815 4753384 
3030.357 4729332 4709235 4692956 4678487 4661272 4635518 4595734 4539714 
3034.215 4468504 4387832 4305804 4231587 4172302 4131825 4110183 4104296 
3038.072 4109046 4118879 4129349 4136876 4139552 4136407 4127877 4115434 
3041.930 4101018 4087070 4075832 4067704 4060948 4051885 4035564 4007439 
3045.787 3966007 3913379 3855810 3801992 3760680 3737753 3733709 3743668 
3049.645 3758507 3768634 3765693 3746175 3711452 3666907 3619694 3576596 
3053.502 3542187 3518169 3503773 3497292 3496257 3498428 3501334 3502704 
3057.359 3499330 3489042 3470305 3443519 3411124 3377062 3345574 3319630 
3061.217 3300099 3285643 3274292 3263408 3252492 3242043 3233898 3228757 
3065.074 3225653 3220779 3209029 3185631 3148049 3097455 3038659 2979070 
3068.932 2925227 2882464 2852446 2833969 2824064 2819762 2818361 2818828 
3072.789 2819728 2819262 2814359 2800853 2774642 2733861 2679148 2614975 
3076.646 2547945 2486124 2436241 2402056 2383831 2378067 2378767 2378567 
3080.504 2370705 2350249 2315038 2266140 2207623 2146217 2089480 2044836 
3084.361 2017738 2010648 2022398 2048298 2081823 2114785 2139025 2148415 
3088.219 2138692 2108658 2060216 1998598 1930964 1865870 1811865 1775101 
3092.076 1758167 1759597 1774568 1795628 1816124 1831729 1841213 1846969 
3095.934 1853757 1866136 1886569 1914923 1947872 1980224 2006420 2021799 
3099.791 2023497 2010748 1984384 1946207 1899314 1846936 1793566 1744161 
3103.648 1703643 1676567 1665158 1669781 1687211 1712392 1738938 1760994 
3107.506 1774402 1778261 1773637 1763656 1751779 1740634 1731586 1724134 
3111.363 1717149 1709830 1701980 1694396 1688309 1685016 1684284 1684650 
3115.221 1683319 1677398 1665058 1646299 1623484 1600270 1580716 1567281 
3119.078 1560265 1557604 1555576 1550388 1539847 1524286 1505766 1488909 
3122.936 1477139 1473515 1477970 1488443 1501078 1512249 1518733 1519165 
3126.793 1514909 1508093 1502308 1501011 1506198 1518700 1537553 1560697 
3130.650 1585637 1609815 1631466 1649392 1663362 1673074 1678629 1679660 
3134.508 1675935 1667653 1655479 1640878 1625712 1611843 1600170 1590027 
3138.365 1580250 1568811 1554412 1537187 1519232 1504336 1496257 1498484 
3142.223 1512283 1536955 1569176 1604726 1639647 1670613 1695992 1715751 
3146.080 1730688 1742265 1751513 1759198 1765486 1769877 1771707 1770343 
3149.938 1765419 1757468 1747587 1737474 1728592 1722671 1719377 1717814 
3153.795 1715552 1709963 1698853 1681689 1659803 1636122 1615036 1600470 
3157.652 1595182 1600170 1613573 1631599 1649725 1663129 1668484 1664526 
3161.510 1653151 1637885 1624116 1616366 1617663 1627840 1643539 1659371 
3165.367 1669416 1669548 1658805 1639847 1617730 1598873 1588298 1588065 
3169.225 1597676 1614271 1633561 1652053 1667287 1677698 1682587 1681323 
3173.082 1673440 1659105 1639414 1616799 1594483 1575728 1562127 1553680 
3176.939 1548061 1542308 1533995 1522490 1509456 1497620 1490106 1487712 
3180.797 1489274 1491868 1492333 1488942 1482126 1474513 1469792 1471454 
3184.654 1480397 1496090 1516406 1539415 1564188 1591025 1620258 1651488 
3188.512 1681756 1705772 1717149 1710263 1682355 1635091 1574264 1508559 
3192.369 1447152 1397254 1363283 1345535 1341347 1346000 1354110 1361023 
3196.227 1362785 1357600 1345036 1326789 1305253 1284117 1266903 1256436 
3200.084 1254708 1261985 1278003 1301265 1330046 1362054 1394595 1424778 
3203.941 1448348 1461414 1460350 1442531 1407459 1357068 1295682 1229454 
3207.799 1165196 1109883 1068062 1042387 1031992 1033553 1041590 1049728 
3211.656 1053614 1051322 1044114 1037040 1036542 1049096 1078990 1126193 
3215.514 1186824 1252913 1314891 1363848 1392601 1397919 1380401 1344537 
3219.371 1297543 1247696 1203603 1170810 1152471 1148119 1154099 1164664 
3223.229 1174332 1179781 1180179 1177654 1175794 1177355 1183004 1189117 
3227.086 1189017 1175428 1142372 1088424 1017810 939968 867021 810651 779879 
3231.426 778220 803879 850355 908656 969058 1022991 1064475 1090184 1100449 
3235.765 1097725 1087294 1074274 1063811 1058762 1059260 1063047 1065804 
3239.623 1063412 1052983 1034150 1008976 981013 954579 932730 917787 910416 
3243.962 910649 918717 934124 956240 983603 1012729 1038302 1054876 1057301 
3248.302 1042786 1012430 969988 922835 878642 844147 823365 817124 823996 
3252.641 839898 861577 885747 909586 931567 949997 963014 969357 968360 
3256.981 961055 950860 942193 939570 946112 961420 981843 1000540 1010304 
3261.321 1006219 987024 956671 922635 893914 877114 874823 884319 898928 
3265.660 910682 913272 904041 885514 862871 842753 830635 829175 837873 
3270.000 854040 874857 897865 921971 946610 971349 994761 1014190 1026412 
3274.339 1028737 1020566 1003031 979452 953915 930372 911313 898131 890860 
3278.679 889366 893217 902082 915463 931800 948469 962350 969855 968759 
3283.019 959494 944451 927583 913770 906199 906067 911844 920311 927915 
3287.358 932099 932198 929642 927052 926919 930405 936681 943389 947373 
3291.698 946112 938640 925624 909719 893483 879804 870142 865428 866059 
3296.037 872267 884319 902082 924694 950030 974471 994263 1006020 1008577 
3300.377 1002798 992238 981478 974537 973275 976762 981478 982374 975367 
3304.717 958531 932796 901518 869843 842553 822568 810817 805804 805340 
3309.056 806800 808958 812742 819846 832262 851451 876849 905668 933161 
3313.396 954778 966335 966401 956074 938773 919381 901584 887706 877579 
3317.735 869578 861278 851351 840130 830038 823963 824195 830934 842354 
3322.075 853741 860680 859120 847799 828112 804178 780942 763283 754288 
3326.415 755383 765905 784128 807165 832494 857294 879372 897733 912242 
3330.754 923665 934191 946145 961353 980382 1002101 1023556 1041291 1051322 
3335.094 1050957 1039830 1019471 992869 964674 938740 917455 901983 890926 
3339.433 881630 870806 856530 838603 819581 804045 797904 805738 829208 
3343.773 865594 908756 950262 981843 998049 997950 984633 963512 940699 
3348.113 920709 905137 893250 883389 873794 863602 852978 842221 831001 
3352.452 818286 802053 781572 757707 733212 712800 701284 702512 717281 
3356.792 744198 779050 817157 854073 885880 910416 926321 933062 931269 
3361.131 923266 912807 904539 903643 913836 936083 968294 1005655 1042254 
3365.471 1072081 1092045 1101379 1101977 1097227 1090749 1084903 1080784 
3369.328 1077662 1073643 1066169 1052484 1030597 999511 960224 915994 871404 
3373.668 832528 804111 789373 788477 799564 818386 841060 864830 888170 
3378.008 910981 932829 952886 969191 979153 980880 974637 962748 949532 
3382.347 939603 936415 940898 950827 961586 967497 963877 947905 919448 
3386.687 881265 839001 799331 770220 758370 767664 798501 846305 902149 
3391.026 954081 990976 1003994 990477 954048 903078 848529 799431 761623 
3395.366 736531 722193 714924 710809 707557 704603 702578 702446 705134 
3399.706 710875 719305 730590 744994 763781 788311 819946 859452 905901 
3404.045 956572 1006684 1050259 1080751 1091879 1080817 1047768 997551 
3407.903 937710 878243 827714 792228 774137 772311 783431 803016 827282 
3412.242 852380 874956 891159 896770 888569 864565 827216 782369 738091 
3416.582 704570 688739 693917 718111 755450 797373 835615 864233 880136 
3420.921 883257 875521 860016 839167 815697 791630 768926 749110 733344 
3425.261 722126 715920 715754 722326 737361 761491 793921 831100 867387 
3429.601 896338 911811 911412 896737 873263 847898 826353 811481 801323 
3433.940 790999 774734 749176 714261 674436 636839 609198 597154 603060 
3438.280 625291 659171 698032 734639 763150 778950 779780 766137 741476 
3442.619 711606 683230 663020 654957 660299 677224 701417 727072 748778 
3446.959 762685 766602 761059 747152 727735 704968 681571 660565 644205 
3451.299 634084 630235 631065 633255 633122 628344 618058 604354 590352 
3455.638 580299 578043 585276 602960 630136 665078 705134 747550 787813 
3459.978 820676 840761 843417 826718 792194 746023 696472 652833 622637 
3464.317 609331 611986 626253 645333 662357 672014 671449 660797 642513 
3468.657 620082 597784 578806 565568 559298 559696 566431 577645 592210 
3472.997 608867 627149 646362 667003 688806 711871 735900 760594 785589 
3477.336 810817 835715 860016 883024 903842 920942 932929 938673 936980 
3481.676 927981 912309 891557 867486 842553 818253 796211 776693 759565 
3486.015 744430 731287 720666 714526 715190 725113 745094 773407 806269 
3490.355 837474 860614 870441 863934 841292 805373 761258 714194 670056 
3494.695 633620 609265 600538 609729 637004 679613 732813 789638 842487 
3499.034 884352 911778 923200 920709 907992 889598 869146 849226 831067 
3503.374 814966 801024 789373 780245 773539 769092 766303 764611 763880 
3507.713 763781 763947 763217 759134 749044 730490 703309 670188 636241 
3512.053 608634 593371 594533 612085 642214 678319 712568 739020 754155 
3516.393 758005 752628 741841 728797 716517 706760 700388 698198 701450 
3520.732 711340 729096 755118 788510 826253 863369 893715 911379 911446 
3525.072 891889 854073 802286 743965 688242 643807 617228 611786 626386 
3529.411 657280 699359 748114 799464 850554 898530 939470 969157 983636 
3533.751 979618 956074 915297 863037 806999 756346 718774 699757 701185 
3538.091 722790 761789 814137 873960 933958 985961 1021696 1035114 1023024 
3542.430 986758 931999 867851 803713 748214 705632 675432 653331 633985 
3546.770 613412 591082 569782 553823 546923 550572 563710 582489 601666 
3551.109 616100 622305 619982 612815 606013 605383 614175 632558 657280 
3555.449 683695 707391 724881 735801 741941 746023 750836 756445 761059 
3559.789 760362 751068 730988 702612 671582 645168 630069 630003 644902 
3564.128 670321 698330 720002 728432 720865 700819 678020 663352 663585 
3568.468 679082 704902 734207 760296 778684 786352 782601 768195 745658 
3572.807 718608 691062 666671 647922 636175 630534 628941 628643 627448 
3577.147 624561 620347 617394 618754 627282 644305 669060 699160 731054 
3581.487 761391 787580 808460 824162 834951 840562 839532 828976 805340 
3585.826 766303 713531 654227 601567 568687 563246 583716 622106 668927 
3590.166 715953 759001 797804 834320 871138 909221 946776 978256 996156 
3594.505 994197 970486 929509 879870 831465 792626 766569 752296 745227 
3598.845 739916 731984 720467 707557 697965 697136 707922 730822 763548 
3603.185 802518 842753 879604 908291 924096 922635 901153 859784 802950 
3607.524 739916 682699 640986 619153 614607 619650 625391 626685 622603 
3611.864 617394 619153 635810 671350 722890 781074 834619 874292 895143 
3616.203 897002 884651 866689 853741 857061 884551 937212 1008743 1087328 
3620.543 1161009 1220416 1260988 1281658 1284715 1274281 1255339 1233940 
3624.400 1215166 1202839 1198453 1200779 1205863 1207358 1198121 1171674 
3628.258 1126625 1070354 1017743 981976 967796 972976 992736 1022825 1060223 
3632.597 1101611 1142571 1177156 1198819 1201909 1184332 1147820 1098323 
3636.455 1044912 998282 969290 966467 993167 1046705 1118819 1197191 1268332 
3640.794 1320774 1346199 1341945 1311335 1262317 1204268 1145594 1091480 
3644.652 1042553 996422 947838 891391 823498 745260 664049 593338 547454 
3648.991 536705 562516 618124 691195 769191 844147 912309 972511 1024353 
3653.331 1066402 1096263 1110281 1105498 1081216 1042122 998149 960092 
3657.188 935884 927716 933261 948436 969855 995293 1023921 1055241 1088357 
3661.528 1121111 1150279 1172239 1183469 1181974 1167687 1142638 1110381 
3665.385 1075602 1043052 1016946 1000706 995891 1002101 1014987 1027309 
3669.243 1029534 1015518 986559 952786 926886 916360 924063 947307 980282 
3673.583 1014422 1039000 1043849 1024950 989581 954347 932431 926288 930804 
3677.922 938773 945115 947539 946809 945182 945248 948270 954314 963246 
3682.262 976065 995094 1024652 1068394 1128552 1203636 1289036 1376845 
3686.119 1458621 1526314 1573932 1600137 1608917 1608019 1604893 1601634 
3689.977 1594084 1576027 1542740 1494927 1438641 1382761 1335231 1301930 
3693.834 1285480 1285613 1300036 1324995 1356270 1389243 1419194 1442132 
3697.691 1454898 1455297 1442763 1418030 1383559 1343341 1303226 1268831 
3701.549 1244373 1230716 1225267 1223805 1222077 1218024 1210813 1201078 
3705.406 1189682 1177555 1164498 1150677 1136492 1123901 1116095 1118819 
3709.264 1137455 1175893 1232544 1298906 1360192 1400711 1410684 1389010 
3713.121 1343009 1283220 1219452 1158651 1105564 1063545 1035678 1025748 
3716.979 1037173 1071716 1127489 1197955 1273516 1341812 1392733 1419027 
3720.836 1418629 1394096 1352348 1302063 1250587 1203105 1161907 1127821 
3724.693 1102442 1088092 1088324 1105066 1137455 1180777 1227992 1272619 
3728.551 1309009 1333968 1345568 1343009 1326524 1298241 1263148 1229487 
3732.408 1207324 1204799 1225367 1265341 1313097 1352581 1367604 1351318 
3736.266 1309640 1257964 1211810 1180346 1166093 1167023 1178884 1197755 
3740.123 1221811 1250321 1284051 1323466 1366574 1407060 1434253 1432990 
3743.980 1393431 1321970 1243244 1183369 1156192 1162139 1194832 1246832 
3747.838 1311335 1382496 1453634 1517204 1564887 1587899 1580450 1542774 
3751.695 1482126 1411880 1346665 1297975 1270492 1263780 1273483 1293123 
3755.553 1316154 1337026 1352248 1360259 1361023 1355240 1343042 1323865 
3759.410 1297510 1266571 1235966 1213073 1204434 1212906 1237661 1274148 
3763.268 1314160 1347462 1365278 1362552 1342410 1315024 1294386 1291661 
3767.125 1310870 1348825 1395891 1439771 1467298 1470124 1448780 1411847 
3770.982 1370995 1336162 1312266 1299438 1295881 1298839 1306450 1317583 
3774.840 1331110 1345435 1357866 1365078 1364114 1354209 1336461 1315190 
3778.697 1296181 1283785 1278634 1276773 1272187 1259991 1239090 1211943 
3782.555 1185296 1166657 1162538 1175295 1201344 1231547 1254608 1261686 
3786.412 1248959 1218555 1177355 1134399 1099253 1078691 1076864 1094735 
3790.270 1129383 1176026 1228457 1280229 1325327 1359960 1381365 1389044 
3794.127 1383725 1367106 1342377 1314127 1288936 1273317 1272619 1289268 
3797.984 1322336 1367937 1420025 1470357 1507362 1517935 1492533 1432857 
3801.842 1354442 1279033 1223074 1191077 1180146 1183967 1196792 1213870 
3805.699 1231780 1248328 1261420 1269761 1272486 1270027 1264112 1257898 
3809.557 1255771 1262317 1281990 1317484 1367937 1429167 1493331 1551552 
3813.414 1593719 1610513 1594783 1544137 1465569 1375748 1296114 1240751 
3817.271 1212175 1202872 1202507 1201277 1192772 1176126 1157621 1149216 
3821.129 1163169 1203271 1261719 1325560 1383227 1428468 1458854 1474413 
3824.986 1476907 1469559 1456161 1441301 1428934 1421221 1418396 1418562 
3828.844 1418828 1415271 1404368 1383925 1354143 1318547 1283519 1255970 
3832.701 1241084 1240054 1250421 1267634 1287108 1306250 1325792 1348758 
3836.559 1380169 1422185 1472185 1522623 1563124 1585870 1589429 1578953 
3840.416 1563058 1549491 1542009 1540413 1541244 1540313 1534959 1525516 
3844.273 1515308 1507561 1504336 1504336 1504170 1499615 1487778 1468628 
3848.131 1446154 1427006 1418363 1426507 1453834 1498185 1552550 1604494 
3851.988 1637951 1635689 1588298 1504901 1410783 1329382 1271223 1236797 
3855.846 1222277 1224436 1240918 1269362 1306350 1346997 1386484 1420291 
3859.703 1445323 1461281 1469925 1474180 1477372 1480697 1483223 1481827 
3863.561 1473515 1457191 1435682 1414872 1400911 1397587 1404833 1419559 
3867.418 1436613 1450808 1456227 1448049 1424978 1389875 1349756 1310936 
3871.275 1276939 1248095 1224303 1206095 1195263 1194699 1206062 1227892 
3875.133 1257067 1289135 1320907 1351285 1380302 1408988 1438043 1467996 
3878.990 1498484 1528243 1556839 1583908 1609582 1633428 1653750 1666788 
3882.848 1668318 1653683 1619958 1568345 1507329 1451872 1417831 1414207 
3886.705 1437378 1475277 1513047 1539249 1546232 1531302 1496124 1447949 
3890.563 1398318 1358564 1336793 1333669 1343939 1359860 1376712 1392235 
3894.420 1407227 1423814 1443428 1465835 1488709 1507794 1517536 1513712 
3898.277 1494062 1461015 1420557 1382429 1354376 1341845 1344438 1358231 
3902.135 1376579 1392501 1401044 1400080 1390506 1376413 1362585 1353046 
3905.992 1350387 1355938 1369732 1390905 1417797 1448315 1479367 1508559 
3909.850 1533663 1554512 1571803 1587167 1602531 1618063 1632729 1643705 
3913.707 1647995 1643206 1629171 1608252 1585238 1566217 1556108 1556474 
3917.564 1566084 1581248 1597842 1613307 1627142 1639381 1650424 1659903 
3921.422 1666355 1668950 1667387 1663595 1660501 1661799 1669416 1682587 
3925.279 1696890 1706504 1706604 1695094 1673008 1643639 1611378 1579884 
3929.137 1551718 1527977 1508293 1492932 1482991 1480231 1486049 1500014 
3932.994 1518700 1536655 1548626 1550156 1540213 1519564 1491369 1459253 
3936.852 1426806 1397154 1373022 1356436 1349656 1353977 1369599 1394661 
3940.709 1425510 1456493 1481761 1497520 1503372 1503505 1503139 1508027 
3944.566 1520296 1538883 1559699 1578022 1589495 1591623 1584374 1569642 
3948.424 1550189 1528276 1505666 1483589 1464073 1449977 1445057 1452404 
3952.281 1473482 1506331 1546199 1585870 1618428 1638816 1645102 1639614 
3956.139 1626776 1612642 1601268 1594350 1591025 1588198 1582877 1573566 
3959.996 1561595 1550422 1545201 1550521 1568944 1599272 1637352 1676933 
3963.854 1711893 1737075 1750349 1751812 1743629 1728559 1709864 1690071 
3967.711 1670846 1653550 1639315 1628539 1621388 1617630 1616499 1616965 
3971.568 1618794 1621787 1626843 1634592 1645335 1658240 1671079 1681090 
3975.426 1685947 1685016 1679394 1671444 1664393 1659969 1658472 1658506 
3979.283 1658273 1656244 1652918 1650324 1650656 1655679 1664593 1674704 
3983.141 1682388 1683984 1678795 1668384 1656943 1648661 1647131 1653883 
3986.998 1667786 1687444 1711593 1739603 1771241 1805477 1838717 1865238 
3990.855 1878382 1872359 1845572 1801185 1747587 1695427 1654847 1632829 
3994.713 1630335 1643572 1665823 1689805 1709398 1722105 1727661 1727295 
3998.570 1722970 1716250 1708633 1701281 1695227 
##END=
