##TITLE=lc_0 31 12:38:39 2026 (GMT+02:00)
##JCAMP-DX=5.01  $$ Nicolet v. 970
##DATATYPE=INFRARED SPECTRUM
##ORIGIN=Vojna akademija
##OWNER=Nicolet
##LONGDATE=2026/08/31
##TIME=12:39:12
##SPECTROMETER/DATA SYSTEM=Nicolet iS20
##DATA PROCESSING=
Ratio against background
%Transmittance->Absorbance
Truncated
ElementMultiply or ElementDivide
##COMMENTS=
Number of sample scans: 8
Collection length: 11,90 sec
Sample gain: 8,0
Background collected on: Mon Aug 31 12:32:58 2026 (GMT+02:00);
Number of background scans: 8
Background gain: 8,0
Sample spacing:  1,000
Number of scan points: 12415
Resolution points: 8286
Number of FFT points: 65536
Apodization: N-B strong;
Phase correction: Mertz;
Laser frequency: 15798,00 cm-1
Number of rejected sample scans: 0
Number of rejected background scans: 0
Bench serial number: BER2010005;
##RESOLUTION= 4,000
##XUNITS=1/CM
##YUNITS=ABSORBANCE
##FIRSTX=400.156891
##LASTX=4000.123047
##FIRSTY=0.001113
##MAXX=4000.123047
##MINX=400.156891
##MAXY=0.273800
##MINY=-0.010977
##XFACTOR=1.000000
##YFACTOR=1.000000E-009
##NPOINTS=7468
##DELTAX=0.482117
##ZPD=6100
##XYDATA=(X++(Y..Y))
400.157 1112673 -1762529 -3537128 -4280987 -4165550 -3430171 -2316309 
403.532 -1053278 182209 1270858 2136527 2758469 3159997 3389284 3488975 
407.389 3475381 3329580 3018039 2520350 1865704 1142305 487012 33632 -138511 
411.728 -35783 235182 480477 453510 -49598 -1140036 -2791761 -4862499 
415.585 -7098425 -9158219 -10630369 -10977453 -9655442 -6364963 -1509313 
418.959 3676130 7689767 9679190 9758445 8549178 6718063 4733620 2900776 
422.816 1372790 195137 -644376 -1191025 -1486893 -1552335 -1384351 -980025 
426.673 -368360 368839 1085866 1600403 1758566 1476973 805738 -69774 -840591 
431.012 -1180913 -851967 201501 1814960 3645756 5270777 6342013 6639496 
434.869 6157672 5102949 3862830 2849678 2338057 2390028 2858650 3497092 
438.726 4058607 4397472 4479216 4369759 4179863 4016301 3928124 3897966 
442.583 3862596 3762719 3585416 3369449 3177987 3059046 3019340 3020241 
446.440 3000155 2909249 2744631 2561577 2455467 2517117 2806789 3324272 
450.297 4008074 4735429 5355135 5717305 5723818 5376504 4787051 4149454 
454.154 3665838 3515898 3802092 4530875 5590988 6760162 7741539 8239577 
458.011 8112187 7432683 6446521 5417500 4537840 3881384 3426386 3103328 
461.868 2838872 2590475 2352748 2149280 2006687 1935657 1927137 1965878 
465.725 2050761 2207190 2487824 2946310 3604225 4426660 5319847 6159756 
469.582 6808727 7157830 7137013 6728057 5971226 4976978 3919331 2989246 
473.439 2361177 2132698 2301647 2781078 3425384 4065631 4531143 4704177 
477.296 4545273 4111286 3525618 2932299 2434408 2057486 1758100 1459220 
481.152 1100648 677257 256765 -37704 -59902 300729 1090151 2266673 3713891 
485.492 5257664 6707127 7902191 8710129 9047434 8883720 8247918 7239557 
489.348 6021786 4808358 3794070 3121717 2841873 2908448 3202353 3583010 
493.205 3948453 4257451 4536366 4846554 5251191 5777606 6402132 7044933 
497.062 7594670 7925339 7928174 7538499 6743908 5596459 4212583 2791315 
500.919 1576326 797207 606610 1001703 1823278 2806455 3695645 4297639 
504.776 4527159 4402359 4011519 3472910 2891637 2350383 1896852 1558968 
508.633 1362552 1336627 1508093 1883141 2431276 3074997 3699221 4190970 
512.490 4458796 4465926 4229044 3802961 3253994 2643144 2023464 1437577 
516.347 930339 556544 374841 440243 783796 1393398 2206557 3116977 4001420 
520.686 4736032 5235798 5466486 5450447 5256859 4990250 4766917 4675272 
524.543 4758643 4989580 5278022 5492558 5515779 5293886 4854762 4296902 
528.400 3753895 3362370 3217842 3365442 3786583 4406241 5101541 5731943 
532.257 6176291 6341475 6190541 5745944 5095070 4374009 3746542 3373456 
536.114 3359398 3736449 4450092 5382576 6369684 7246227 7886737 8213070 
539.971 8210875 7915992 7401607 6752556 6054745 5381066 4774120 4248517 
543.828 3792298 3383774 3011166 2693251 2481526 2452135 2666179 3134599 
547.685 3790727 4500441 5087930 5387071 5310958 4879558 4228341 3548400 
551.542 3038759 2825165 2929864 3280735 3752324 4218572 4594528 4861229 
555.398 5048473 5201794 5344200 5462191 5512826 5454507 5272555 4997255 
559.255 4692320 4434660 4278431 4238646 4290377 4387799 4486649 4565463 
563.112 4631131 4708598 4820252 4968432 5128898 5256624 5301332 5219969 
566.969 4991892 4621285 4136642 3582543 3019106 2511485 2115850 1873623 
570.826 1796527 1864639 2028124 2225840 2404588 2536547 2630676 2726426 
574.683 2875426 3111504 3432297 3790293 4114632 4335186 4419396 4383314 
578.540 4287299 4208266 4213018 4337362 4571691 4867897 5158102 5385931 
582.397 5517591 5550378 5503396 5408274 5295798 5188850 5100367 5031713 
586.254 4974900 4914073 4831141 4707660 4532014 4303294 4033892 3746943 
590.111 3468234 3220779 3014002 2843574 2691651 2538947 2374203 2201628 
593.968 2040941 1922544 1877084 1923043 2063046 2280096 2546679 2832168 
597.825 3115943 3393291 3674025 3974501 4307009 4668473 5035199 5365031 
601.682 5607837 5724087 5693435 5526484 5261688 4959550 4681434 4471416 
605.539 4346632 4294025 4280238 4266184 4225129 4147714 4043390 3931468 
609.396 3832343 3758541 3713056 3692704 3693239 3711151 3742465 3779764 
613.253 3807741 3803696 3747111 3625942 3448094 3242243 3054608 2932666 
617.109 2908281 2988178 3151153 3357060 3559024 3721544 3825056 3868613 
620.966 3863164 3825958 3772979 3714961 3656148 3593434 3517601 3413228 
624.823 3264443 3061182 2806889 2523083 2249420 2034250 1916720 1917918 
628.680 2028823 2215782 2426745 2612475 2742330 2812458 2844175 2873192 
632.537 2935468 3051438 3224017 3439077 3675094 3907395 4114364 4277360 
636.394 4378059 4400217 4334249 4184379 3972428 3736449 3522311 3364440 
640.251 3276462 3244614 3236268 3215071 3161265 3082872 3014435 2999788 
644.108 3073695 3242811 3481995 3741630 3968014 4127543 4215159 4255309 
647.965 4284052 4334416 4416149 4514168 4594897 4626810 4594897 4509783 
651.822 4402158 4312095 4271571 4289306 4348573 4412065 4438610 4393321 
655.679 4262369 4055330 3802125 3541419 3310416 3136501 3030017 2985275 
659.536 2984174 3004927 3025212 3029817 3013034 2976067 2925527 2868522 
663.393 2810958 2756402 2707987 2670647 2654178 2675314 2757502 2924026 
667.250 3179689 3483097 3743468 3861794 3806504 3615418 3354088 3077833 
671.107 2827299 2630743 2504520 2456534 2482725 2568910 2692384 2830267 
674.963 2963757 3080836 3177253 3255263 3320332 3379299 3435770 3489811 
678.820 3538112 3575093 3598379 3610740 3623069 3651704 3712454 3815897 
682.677 3959989 4129450 4297773 4437974 4529670 4568912 4567573 4548989 
686.534 4537337 4545808 4571457 4595801 4594562 4549090 4460536 4353493 
690.391 4274483 4274014 4396200 4660904 5057457 5546922 6073057 6580892 
694.248 7022068 7368578 7611664 7758843 7827087 7838759 7818281 7788392 
698.105 7772639 7791800 7858530 7974744 8127446 8292733 8440684 8547590 
701.962 8602946 8614606 8604500 8601932 8632586 8708777 8831541 8995878 
705.819 9199737 9452654 9774541 10186953 10701559 11307432 11967315 12622233 
709.676 13213031 13694750 14055457 14322794 14558223 14837630 15226054 
713.051 15767284 16472459 17325650 18294728 19349384 20469332 21648138 
716.425 22889876 24197178 25560962 26954848 28330622 29624524 30770182 
719.800 31702854 32376214 32768934 32888900 32771614 32472004 32053300 
723.175 31565972 31043136 30496406 29922174 29315946 28683308 28043780 
726.550 27427390 26859598 26348134 25877152 25413880 24920678 24374304 
729.925 23778812 23167638 22592608 22102772 21732640 21489808 21357322 
733.300 21300490 21281422 21266946 21231524 21159228 21039676 20868078 
736.674 20648070 20394454 20134460 19899144 19717144 19600658 19540452 
740.049 19506626 19461262 19372908 19229292 19043588 18848482 18683006 
743.424 18573228 18524678 18516864 18513198 18469046 18349610 18138822 
746.799 17840608 17477262 17083374 16699933 16362896 16100489 15923612 
750.174 15823018 15768144 15713928 15612318 15422388 15126308 14736568 
753.548 14295536 13860493 13490616 13228710 13087213 13046135 13058119 
756.923 13067852 13022269 12891693 12676098 12405205 12127119 11895115 
760.298 11754494 11727226 11809102 11972833 12180787 12393135 12580620 
763.673 12729970 12841282 12923164 12983860 13026024 13044599 13030805 
767.048 12977339 12883433 12757881 12615172 12469408 12329897 12197143 
770.423 12067088 11934994 11802701 11680695 11587715 11542661 11558075 
773.797 11633828 11755549 11895762 12020111 12097750 12103712 12027741 
777.172 11874274 11664188 11430083 11212458 11054418 10988180 11028689 
780.547 11166458 11370318 11590846 11773593 11874751 11866919 11746801 
783.922 11530855 11248467 10930616 10602813 10283841 9985241 9715172 9480558 
787.779 9286181 9134694 9025816 8955963 8920888 8917066 8941926 8991852 
791.636 9059952 9132935 9191377 9216456 9193949 9121836 9011777 8887711 
795.493 8777204 8701982 8675683 8701610 8778150 8904790 9084752 9323485 
799.350 9621765 9970052 10344169 10707876 11024238 11262306 11408346 
802.724 11466449 11454746 11395453 11306106 11198382 11078890 10956305 
806.099 10846052 10768196 10743740 10787284 10900411 11073384 11290531 
809.474 11537660 11807128 12098874 12412944 12741127 13062320 13340321 
812.849 13532625 13605270 13543461 13358841 13084549 12768527 12457064 
816.224 12183819 11968439 11814516 11713883 11650403 11605445 11557225 
819.598 11485024 11373277 11214532 11015163 10793331 10576262 10390184 
822.973 10250830 10159105 10100668 10052005 9987547 9889064 9748210 9565704 
826.830 9347184 9100383 8834449 8561006 8297731 8069316 7901921 7820441 
830.687 7836972 7947610 8130721 8353765 8578984 8772910 8915206 8998178 
834.544 9025884 9009139 8961849 8896876 8824879 8754112 8689001 8629815 
838.401 8573070 8512954 8443926 8364844 8280135 8201455 8143111 8118163 
842.258 8134333 8192439 8285370 8401427 8528125 8652934 8764796 8854265 
846.115 8912568 8932523 8911419 8853149 8768921 8675920 8593449 8536945 
849.972 8514407 8525186 8562797 8617884 8681869 8749649 8818557 8887338 
853.829 8954881 9018204 9074974 9122208 9157028 9175404 9171478 9138247 
857.686 9071184 8971894 8852744 8735416 8647357 8610854 8634007 8705498 
861.543 8798708 8882604 8933538 8947507 8941757 8946729 8989146 9079676 
865.400 9204271 9329985 9416558 9434843 9379211 9269324 9140074 9025782 
869.256 8948590 8911384 8902152 8905196 8912298 8927078 8961341 9024734 
873.113 9115779 9216218 9296709 9324839 9280900 9165184 8997264 8806688 
876.970 8622244 8462948 8333093 8227759 8140445 8070801 8027731 8027022 
880.827 8083156 8203109 8381193 8599498 8832555 9057177 9257477 9428104 
884.684 9573765 9704161 9828799 9952151 10072724 10183323 10274205 10336127 
888.541 10363511 10356520 10320179 10262094 10190413 10110537 10024166 
891.916 9930963 9831951 9732081 9642025 9574104 9537964 9534103 9551004 
895.773 9565840 9549751 9479610 9342647 9142579 8895658 8626536 8358325 
899.630 8107832 7885759 7699446 7555996 7465615 7437738 7477986 7582329 
903.487 7736851 7919771 8108069 8285505 8444265 8585609 8712969 8826300 
907.344 8918351 8976258 8987218 8947372 8865018 8760299 8655402 8567156 
911.201 8498357 8438926 8370688 8279157 8162727 8036777 7928612 7869563 
915.058 7884814 7984091 8159350 8387138 8637420 8875671 9071895 9203730 
918.914 9255988 9223596 9111515 8936920 8725105 8506331 8310261 8157798 
922.771 8060944 8023647 8044743 8122991 8257374 8445008 8675683 8927957 
926.628 9168602 9355816 9452824 9437653 9312720 9105289 8863430 8643842 
930.485 8494268 8449838 8523124 8704957 8968005 9273690 9578914 9839950 
934.342 10022606 10106230 10089002 9989106 9842865 9695656 9587213 9545449 
938.199 9577187 9670347 9797416 9927403 10033151 10095140 10105687 10064992 
942.056 9980325 9863168 9729913 9600661 9493969 9424921 9398679 9408025 
945.913 9435553 9460680 9467622 9452011 9422923 9399391 9401355 9438939 
949.770 9509717 9597511 9680104 9735977 9752683 9729438 9674244 9598866 
953.627 9515746 9437382 9375826 9346066 9364687 9443782 9584368 9770983 
957.484 9970764 10137873 10229220 10219178 10109553 9931574 9738384 9590194 
961.341 9532477 9587112 9744314 9970629 10215617 10429993 10578062 10641079 
965.198 10621318 10537357 10418760 10296733 10198690 10142791 10133904 
968.573 10164769 10218602 10275732 10317464 10332157 10317193 10276037 
971.947 10215243 10139298 10048953 9941370 9814057 9668619 9512799 9360996 
975.804 9229554 9130059 9066617 9032210 9011709 8985086 8936176 8856057 
979.661 8746471 8617411 8485011 8365452 8270005 8203785 8164145 8143415 
983.518 8130857 8116609 8093722 8058379 8011058 7953753 7889639 7821419 
987.375 7751287 7681942 7616992 7562099 7524406 7509674 7521136 7555390 
991.232 7603100 7648556 7674860 7667104 7616655 7524035 7398270 7254819 
995.089 7110303 6982267 6885171 6830673 6828384 6885137 7004019 7182218 
998.946 7409190 7664979 7919738 8141930 8300467 8374471 8358493 8263892 
1002.803 8115327 7944068 7781815 7651085 7562099 7513348 7495144 7495448 
1006.660 7505022 7520293 7541229 7567865 7596120 7615441 7611327 7571034 
1010.517 7488570 7370432 7234570 7107070 7010821 6959574 6952334 6976004 
1014.374 7011696 7043654 7067834 7091948 7132432 7206002 7322882 7482166 
1018.231 7672634 7877425 8080455 8268688 8432744 8565027 8656720 8697215 
1022.087 8677947 8597099 8463995 8298947 8130890 7986758 7886164 7837276 
1025.945 7837916 7881271 7961278 8075122 8220803 8391226 8570400 8730379 
1029.802 8839082 8867927 8802528 8648641 8431731 8188759 7954528 7756482 
1033.660 7610012 7521271 7493796 7532126 7640193 7815347 8042852 8291044 
1037.517 8514947 8670883 8727742 8680855 8553977 8393455 8250654 8163031 
1041.374 8145441 8185686 8254537 8315226 8340659 8319212 8255618 8164854 
1045.232 8067290 7980481 7916869 7884240 7885050 7917375 7973865 8041840 
1049.089 8103916 8140039 8134705 8080422 7981561 7853368 7719312 7605494 
1052.947 7533711 7520226 7572281 7688114 7857451 8064624 8289829 8512210 
1056.804 8714490 8884870 9018644 9117335 9184270 9220652 9221566 9175336 
1060.661 9069053 8894509 8654388 8364404 8051054 7746160 7476873 7264151 
1064.519 7119667 7049547 7054531 7133409 7279246 7474783 7690137 7884814 
1068.376 8010619 8028170 7916329 7682516 7360558 7006174 6681789 6438383 
1072.234 6311116 6311015 6428227 6637208 6905336 7200544 7492312 7757528 
1076.091 7980042 8152970 8278684 8368762 8438453 8499844 8557119 8602438 
1079.949 8619337 8587535 8495079 8343598 8152733 7952977 7778104 7654457 
1083.806 7590657 7576597 7586139 7588904 7557008 7476738 7350953 7197276 
1087.663 7041263 6907962 6816536 6774196 6778773 6821114 6892644 6987049 
1091.521 7102254 7237266 7388024 7543185 7684843 7790349 7841965 7833396 
1095.378 7776519 7698198 7635943 7625355 7684809 7811838 7980886 8154219 
1099.236 8289727 8357041 8344037 8257408 8115597 7941401 7754121 7564729 
1103.093 7378285 7197647 7026816 6874095 6750773 6668095 6634517 6651911 
1106.951 6713790 6804520 6902138 6979270 7008598 6970516 6857231 6679030 
1110.808 6462764 6249866 6083608 5995548 5998201 6079542 6208993 6346518 
1114.665 6460007 6532554 6567368 6582035 6600336 6639665 6704772 6787187 
1118.523 6870864 6939776 6983984 7002201 7000719 6988664 6974153 6963446 
1122.380 6961088 6970920 6997217 7042441 7105992 7181005 7256099 7318670 
1126.238 7358805 7374274 7371645 7364130 7364669 7383306 7422267 7477682 
1130.095 7542679 7611260 7680391 7748993 7814807 7871891 7909648 7917105 
1133.953 7887311 7822633 7736311 7649803 7587488 7566786 7596052 7671690 
1137.810 7781545 7909142 8038870 8159620 8262845 8343901 8399671 8430041 
1141.667 8438251 8432778 8425481 8427642 8446528 8482139 8527382 8570874 
1145.525 8603351 8621636 8630289 8638434 8655132 8683593 8719156 8751137 
1149.382 8768481 8766250 8749244 8730615 8726018 8748466 8800973 8876652 
1153.240 8961105 9039686 9101940 9145048 9172426 9190430 9204136 9215406 
1157.097 9224105 9230128 9235849 9247188 9270170 9308929 9362012 9422145 
1160.954 9478052 9518692 9537998 9535830 9518353 9493156 9467689 9445542 
1164.812 9427156 9411478 9398273 9389572 9389131 9399966 9421941 9450317 
1168.669 9476494 9489431 9480050 9442800 9376536 9284387 9170936 9041987 
1172.527 8902760 8758608 8615146 8477847 8351873 8240320 8143179 8057873 
1176.384 7980210 7907388 7839637 7781106 7738807 7719514 7725687 7753412 
1180.242 7792036 7828166 7848645 7846250 7821149 7779892 7732196 7686124 
1184.099 7646127 7611597 7579328 7546489 7514158 7487357 7474379 7481626 
1187.956 7511022 7557143 7609540 7653985 7679278 7680661 7660932 7628930 
1191.814 7596727 7574743 7568168 7576361 7593726 7612440 7625557 7629064 
1195.671 7623230 7612406 7603470 7604347 7621983 7660190 7717693 7787718 
1199.529 7859273 7919063 7955642 7964045 7947610 7918725 7893991 7891427 
1203.386 7921998 7987331 8078126 8179001 8271963 8342483 8383388 8393793 
1207.244 8378694 8344071 8295772 8238260 8175524 8113268 8058076 8016728 
1211.101 7993136 7986521 7989863 7992799 7986082 7965395 7932662 7896118 
1214.958 7866021 7849523 7847430 7854178 7861398 7861668 7853436 7841290 
1218.816 7834779 7844360 7875535 7928544 7997422 8074244 8151079 8222963 
1222.673 8288309 8345861 8393320 8426934 8441257 8433116 8403353 8358055 
1226.531 8306377 8258927 8222896 8201319 8193553 8197167 8210706 8235795 
1230.388 8275273 8332452 8408015 8498728 8597707 8697080 8790120 8873338 
1234.245 8945174 9005316 9051764 9080150 9084752 9061373 9010153 8937225 
1238.103 8855110 8778252 8720237 8690218 8690624 8717600 8763376 8818252 
1241.960 8871884 8915714 8942738 8948590 8933065 8900427 8861062 8827517 
1245.818 8813247 8827821 8873236 8943414 9026290 9108301 9177671 9229418 
1249.675 9265160 9290920 9313025 9334792 9354801 9368106 9368817 9354530 
1253.533 9327954 9297589 9274638 9269798 9290582 9338685 9410462 9499015 
1257.390 9596495 9696673 9795484 9890657 9980122 10061126 10129055 10177082 
1261.247 10198588 10188412 10145064 10071707 9977307 9875743 9782878 9715681 
1265.105 9687626 9706024 9771796 9878048 10013112 10159444 10298973 10414822 
1268.962 10493329 10528123 10520824 10482059 10427617 10377221 10347766 
1272.338 10348478 10378815 10429585 10487660 10539529 10578129 10603594 
1275.713 10622133 10641690 10666751 10695446 10720272 10731072 10721461 
1279.088 10692967 10657310 10631810 10633609 10672796 10748223 10847513 
1282.463 10951921 11044323 11114446 11162990 11199198 11237245 11288830 
1285.839 11358583 11442159 11529085 11606194 11662690 11693969 11702275 
1289.214 11695331 11683349 11676610 11683588 11709764 11757558 11826808 
1292.589 11914697 12015717 12122928 12228973 12327340 12414001 12489118 
1295.964 12556404 12621994 12692952 12774566 12868347 12970375 13072768 
1299.339 13164257 13233390 13271957 13278414 13258600 13225226 13195645 
1302.715 13186423 13208146 13262187 13340389 13428072 13507262 13564314 
1306.090 13592210 13592586 13573064 13543085 13510782 13478995 13446082 
1309.465 13408046 13361198 13304891 13241588 13175767 13111458 13050027 
1312.840 12988810 12922482 12845105 12753206 12647476 12533076 12418774 
1316.216 12314284 12227678 12163476 12121259 12095535 12077240 12056664 
1319.591 12026617 11984278 11931894 11875602 11823812 11783806 11760384 
1322.966 11754528 11763856 11783398 11808353 11835490 11864365 11897226 
1326.341 11937888 11990647 12057890 12139692 12234017 12338010 12449051 
1329.717 12565510 12687596 12815789 12950200 13090457 13234312 13379274 
1333.092 13522985 13664385 13803847 13943012 14084172 14229931 14382761 
1336.467 14544347 14715591 14895165 15078725 15258416 15422354 15558878 
1339.842 15660303 15727190 15767938 15795872 15824014 15860889 15909074 
1343.218 15966166 16026463 16084157 16135840 16183538 16234098 16297115 
1346.593 16382163 16495483 16637407 16802142 16978860 17155582 17320548 
1349.968 17466536 17591214 17696704 17788480 17872200 17953066 18033430 
1353.343 18112566 18187500 18254570 18313042 18366858 18425520 18504486 
1356.719 18620642 18788518 19018006 19312420 19670648 20090282 20574204 
1360.094 21135120 21797332 22591282 23542880 24653122 25885100 27163612 
1363.469 28401010 29527482 30506072 31331860 32015416 32570996 33013902 
1366.844 33364762 33659188 33949832 34309232 34811028 35509580 36435848 
1370.220 37594544 38981192 40597740 42466456 44625124 47104784 49894516 
1373.595 52892064 55890248 58630940 60875832 62488312 63434140 63728376 
1376.970 63390428 62424232 60836000 58669280 56034868 53106640 50066228 
1380.345 47073468 44227080 41563268 39085808 36784616 34652420 32683830 
1383.721 30864942 29165638 27537698 25925756 24282352 22590830 20881324 
1387.096 19224926 17704366 16375557 15248944 14299337 13488463 12781630 
1390.471 12154889 11593023 11085111 10619960 10187835 9783149 9408363 
1393.846 9075684 8802461 8599735 8463488 8375180 8312355 8257814 8205878 
1397.704 8159485 8124712 8103613 8091460 8078733 8058616 8030634 8001101 
1401.561 7978321 7968804 7973798 7989964 8010923 8032929 8058041 8093992 
1405.419 8148310 8222828 8309721 8395651 8467441 8518124 8549651 8570806 
1409.276 8591658 8618155 8648000 8673215 8685418 8683998 8678218 8685282 
1413.133 8721488 8794684 8901408 9029266 9165014 9301008 9442089 9604184 
1416.991 9806939 10061228 10355027 10647871 10889471 11049456 11140348 
1420.366 11202258 11279683 11399978 11573219 11799501 12076082 12400465 
1423.741 12771018 13183383 13626911 14086123 14547533 15006485 15472756 
1427.117 15971081 16537990 17212116 18020064 18964144 20019668 21146008 
1430.492 22306182 23479780 24663432 25860164 27069656 28283232 29491592 
1433.867 30696956 31918444 33201494 34607996 36188728 37929132 39730052 
1437.242 41452148 42997964 44359936 45597520 46790992 48016580 49326812 
1440.618 50745976 52267548 53864676 55499404 57133580 58742104 60309968 
1443.993 61831668 63309804 64753092 66179128 67614392 69090536 70631640 
1447.368 72240712 73895632 75557368 77196816 78816744 80450424 82148760 
1450.743 83955424 85885136 87907720 89954104 91946184 93814016 95529320 
1454.119 97101944 98559696 99922384 101171424 102228776 102971368 103326664 
1457.494 103364200 103246600 103112048 102997072 102875792 102708776 
1460.387 102475176 102171976 101803296 101364408 100828168 100137512 
1463.280 99212416 97969736 96362320 94410216 92181360 89741600 87113960 
1466.655 84271432 81186504 77863848 74361192 70755824 67131952 63537484 
1470.030 59940996 56246588 52319720 48079388 43615656 39254208 35417756 
1473.406 32357830 30045688 28264136 26763840 25381316 24047090 22771000 
1476.781 21595204 20554472 19649570 18850698 18116608 17412072 16718078 
1480.156 16033236 15368387 14738487 14155334 13624415 13145883 12720280 
1483.531 12349498 12035815 11777780 11567604 11390998 11231669 11077360 
1486.907 10923617 10773256 10629875 10486947 10325845 10121085 9860795 
1490.282 9562723 9267970 9016682 8827618 8696641 8603486 8523260 8433791 
1494.139 8321576 8184099 8031106 7879382 7746733 7639754 7552153 7469053 
1497.997 7379868 7283828 7186227 7091644 6999204 6902407 6794524 6673748 
1501.854 6546277 6424326 6323589 6257665 6233664 6250774 6297769 6353982 
1505.712 6386866 6362489 6265598 6119563 5964977 5821394 5683162 5541686 
1509.569 5393680 5243578 5098624 4965717 4846587 4738712 4637494 4540920 
1513.426 4452536 4382477 4343587 4347636 4398777 4486950 4584918 4660066 
1517.284 4692554 4684750 4655244 4623930 4602866 4590979 4575207 4533855 
1521.141 4451598 4332341 4201208 4083692 3990819 3917224 3851330 3782071 
1524.999 3703632 3617222 3529894 3450165 3384141 3332852 3294490 3267882 
1528.856 3254628 3258868 3284741 3335357 3411091 3508415 3620062 3731637 
1532.714 3820242 3860222 3835886 3753527 3636567 3512357 3401907 3318228 
1536.571 3273290 3277897 3342135 3467866 3640677 3815462 3918361 3889642 
1540.428 3740527 3552142 3403744 3328913 3313420 3322535 3318762 3277663 
1544.286 3192974 3077466 2954883 2848577 2772007 2727093 2709421 2711488 
1548.143 2725325 2741664 2750133 2741530 2710188 2658245 2594509 2530881 
1552.001 2478193 2444205 2432576 2440706 2459866 2478627 2488557 2489024 
1555.858 2487591 2497222 2534614 2617109 2753501 2921291 3051038 3070525 
1559.715 2989512 2872324 2763938 2676781 2608908 2555278 2513218 2481792 
1563.573 2462398 2455601 2460466 2473162 2489524 2508086 2531414 2565977 
1567.430 2619309 2695751 2791082 2886900 2955884 2976801 2949145 2892971 
1571.288 2834403 2793183 2776909 2784412 2807289 2834303 2851946 2848144 
1575.145 2816460 2760170 2693151 2633510 2593175 2572643 2566443 2568710 
1579.003 2575343 2583842 2591609 2595542 2592842 2582642 2567777 2555545 
1582.860 2554845 2574110 2617342 2681782 2758169 2832902 2893538 2931165 
1586.717 2943207 2932466 2906047 2872191 2838405 2810691 2792049 2783946 
1590.575 2785680 2795384 2810924 2829167 2847743 2865087 2881463 2898375 
1594.432 2918989 2946043 2981105 3023644 3071293 3120015 3165705 3205090 
1598.290 3236134 3258601 3274325 3287278 3302870 3327276 3365174 3418304 
1602.147 3484633 3557821 3629584 3692069 3739858 3771275 3787652 3791429 
1606.005 3784310 3765860 3734879 3690231 3632658 3565404 3491948 3414597 
1609.862 3333120 3245214 3148483 3043931 2937303 2838305 2757602 2704687 
1613.719 2685583 2701619 2746732 2806489 2858149 2873258 2834503 2746031 
1617.577 2633343 2524849 2441539 2391394 2372970 2379333 2399757 2420148 
1621.434 2423480 2392660 2318403 2207124 2083388 1980290 1923210 1919449 
1625.292 1962183 2035315 2121211 2201129 2261311 2293753 2298683 2281861 
1629.149 2251052 2212885 2170392 2125006 2078261 2032851 1993072 1964014 
1633.006 1950068 1954262 1977295 2015974 2061748 2102166 2125406 2127237 
1636.864 2111388 2084620 2052259 2017472 1983086 1951566 1925373 1905904 
1640.721 1892459 1882542 1872426 1859248 1843143 1827570 1818553 1824642 
1644.579 1854024 1911528 1993804 2084353 2155407 2179650 2150679 2085152 
1648.436 2009183 1941681 1894156 1872991 1883773 1934692 2037379 2202028 
1652.294 2416549 2615842 2695818 2611775 2426578 2223176 2045035 1901178 
1656.151 1788841 1701747 1634426 1582811 1544037 1516539 1498717 1490205 
1660.008 1490737 1500778 1521792 1554545 1599139 1652419 1708200 1759497 
1663.866 1802250 1836854 1867767 1901045 1942347 1995202 2058651 2125539 
1667.723 2181481 2206258 2180815 2098536 1974965 1841978 1730721 1658572 
1671.581 1626543 1624781 1641676 1667553 1696890 1726895 1756936 1785281 
1675.438 1808604 1822646 1824442 1813729 1792002 1762591 1729590 1698454 
1679.296 1676866 1672775 1693464 1742797 1821847 1928634 2057120 2195068 
1683.153 2315205 2375402 2344320 2235965 2101733 1982853 1891294 1819485 
1687.010 1754540 1686013 1608850 1525117 1442597 1371792 1320940 1293422 
1690.868 1286909 1296613 1318547 1351351 1395792 1454465 1528575 1614803 
1694.725 1702479 1772472 1805543 1796061 1758466 1715219 1681090 1660269 
1698.583 1646565 1628639 1595082 1546564 1499581 1475144 1480364 1509357 
1702.440 1549424 1589761 1620856 1636454 1633395 1612409 1577889 1536123 
1706.297 1492001 1447717 1403769 1361754 1324829 1298141 1286809 1294087 
1710.155 1319411 1358697 1406030 1454499 1500446 1542508 1583010 1627109 
1714.012 1681756 1754008 1848733 1964547 2089913 2201695 2264741 2248321 
1717.870 2145851 1985783 1813928 1669216 1570839 1519199 1505998 1518766 
1721.727 1545134 1574397 1600470 1621854 1640412 1658240 1673706 1681090 
1725.585 1673008 1643273 1591391 1523255 1451739 1392368 1358497 1357766 
1729.442 1388479 1441799 1505633 1571937 1639182 1711394 1793133 1881777 
1733.299 1959654 1997899 1976163 1905371 1819817 1751413 1716051 1714587 
1737.157 1740701 1783019 1827570 1859647 1870728 1862176 1845139 1833327 
1741.014 1836022 1853491 1879281 1903408 1917186 1917552 1907135 1893790 
1744.872 1886336 1891594 1911628 1943744 1980657 2013477 2032052 2028923 
1748.729 2000861 1950468 1885138 1815492 1753143 1706504 1679427 1670280 
1752.587 1674538 1686579 1701448 1715020 1723469 1722737 1708999 1679926 
1756.444 1637552 1589129 1545899 1518700 1513779 1533131 1573499 1628506 
1760.301 1687477 1738173 1766950 1764721 1730255 1670214 1595315 1516007 
1764.159 1441334 1378241 1333038 1312000 1320076 1359428 1426241 1510820 
1768.016 1598507 1676500 1738173 1784616 1820782 1851961 1878183 1892625 
1771.874 1883940 1843742 1774968 1691069 1607221 1533197 1472152 1421487 
1775.731 1376911 1334201 1291495 1249557 1210547 1175661 1143767 1109982 
1779.589 1067763 1011832 942226 866025 796377 746090 724782 736796 780610 
1783.928 849127 931767 1018009 1100183 1175727 1245935 1313329 1378108 
1787.786 1438741 1490904 1531069 1557804 1572801 1580583 1586436 1593386 
1791.643 1598873 1594650 1571105 1524020 1456394 1376546 1294951 1221546 
1795.500 1163734 1126127 1110215 1115430 1139681 1180179 1234139 1296613 
1799.358 1359561 1411947 1440569 1435117 1393166 1321738 1235468 1151774 
1803.215 1085966 1046174 1033054 1040096 1057301 1074207 1083574 1084172 
1807.073 1080252 1079455 1089055 1113470 1150877 1194333 1232976 1256868 
1810.930 1259626 1241781 1209883 1174000 1143402 1123337 1114467 1112972 
1814.787 1111776 1102043 1076333 1030132 964674 886577 807829 741343 696671 
1819.127 678750 685056 708519 739120 768992 794584 816991 840728 870839 
1823.467 908756 950727 987123 1007315 1006219 987522 963180 947307 952587 
1827.806 984035 1037505 1097592 1141907 1148451 1107557 1028072 932564 
1831.664 844545 780809 750371 754985 791862 854771 935685 1025947 1116593 
1836.003 1200048 1269462 1319843 1349058 1358298 1352980 1340649 1330412 
1839.861 1329515 1342510 1370662 1411880 1460051 1504635 1532399 1527644 
1843.718 1479001 1385088 1257898 1118121 987256 880136 803116 755118 730424 
1848.058 720002 715588 709515 699359 686383 676062 675531 691693 728532 
1852.397 786319 860282 941728 1020201 1085335 1130346 1151641 1149980 
1856.255 1128486 1094038 1055208 1020566 998780 996522 1017743 1063512 
1860.112 1131409 1214435 1301863 1381399 1440569 1469792 1464905 1427139 
1863.970 1364214 1287540 1211478 1149116 1109916 1098921 1116394 1158750 
1867.827 1218721 1287274 1354043 1409819 1448714 1467331 1464539 1441733 
1871.684 1401276 1347396 1286443 1225865 1172604 1133701 1113836 1116028 
1875.542 1140478 1184399 1241283 1300900 1350720 1378341 1373820 1333204 
1879.399 1259426 1163036 1057732 957169 870441 800858 747318 707590 682600 
1883.739 676295 695908 747417 832561 946510 1079688 1220582 1358796 1487812 
1888.078 1604826 1709198 1798690 1867501 1906469 1906170 1863041 1781854 
1891.936 1676035 1564454 1467597 1404069 1385819 1414872 1481661 1569675 
1895.793 1657209 1726064 1766184 1774468 1755439 1718712 1677465 1644703 
1899.651 1630235 1636188 1655413 1670480 1657674 1596213 1473582 1294452 
1903.508 1080153 866623 691295 584645 562582 621608 740646 886079 1023688 
1907.848 1123735 1169016 1157023 1098854 1014323 926919 859784 829407 844844 
1912.187 907129 1010105 1140777 1282057 1417066 1530703 1614471 1665158 
1916.045 1683319 1670280 1625180 1545999 1434419 1296712 1147654 1004658 
1919.902 886444 808526 780344 804145 871437 964110 1054544 1116228 1132505 
1924.242 1098622 1020998 913836 792925 672976 566099 481008 422797 394905 
1928.581 398785 435168 503365 599244 716352 844612 972212 1087627 1181176 
1932.921 1248992 1293190 1323665 1354509 1400844 1474313 1577656 1705439 
1936.778 1843908 1974066 2076496 2134762 2137926 2080325 1960752 1785448 
1940.636 1572967 1354143 1179415 1103638 1167355 1380268 1711760 2097005 
1944.493 2451735 2702353 2796518 2719824 2496755 2183979 1852160 1564355 
1948.351 1366242 1274214 1281027 1363981 1499847 1672509 1874788 2105895 
1952.208 2366240 2650744 2948612 3243512 3516499 3748280 3917659 4005633 
1956.066 3995166 3876838 3654444 3348011 2995284 2642543 2341954 2137926 
1959.923 2055988 2098037 2243192 2457867 2706254 2961021 3206626 3435303 
1963.780 3639207 3807340 3919096 3949690 3873795 3678803 3371953 2992615 
1967.638 2604609 2281162 2089347 2067341 2220178 2522883 2930931 3386479 
1971.495 3830170 4220244 4531378 4759346 4910822 4991524 5000339 4932773 
1975.353 4790703 4593021 4380435 4206493 4115401 4126941 4222519 4353359 
1979.210 4453339 4471014 4387565 4219642 4007707 3794471 3609003 3452903 
1983.068 3304806 3134465 2923692 2678615 2432176 2227405 2103065 2066941 
1986.925 2089381 2105528 2042838 1850097 1518434 1086663 634449 261738 50466 
1991.265 48941 250996 603458 1024120 1433122 1772572 2007286 2127271 2135895 
1995.604 2046866 1880212 1664559 1438342 1244473 1124034 1104701 1192439 
1999.462 1368535 1598408 1845039 2077561 2281995 2460932 2625109 2783012 
2003.319 2929363 3038559 3072828 2989679 2763704 2400589 1946940 1477039 
2007.176 1069457 786651 649382 636507 694016 763150 798037 788078 760462 
2011.516 769623 872367 1104136 1467365 1925672 2421447 2891136 3289716 
2015.373 3597710 3818303 3965004 4051049 4082688 4057704 3975236 3843642 
2019.231 3680808 3511856 3358596 3227322 3104396 2960388 2756669 2463132 
2023.088 2074732 1613772 1133402 702413 394606 264556 334617 587001 968061 
2027.428 1397055 1773437 2009050 2043571 1867101 1526081 1114666 745492 
2031.285 510895 465384 600206 853642 1131177 1348459 1460483 1470922 1421221 
2035.625 1365776 1345368 1370762 1426208 1485750 1533330 1572868 1626676 
2039.482 1719910 1863341 2040441 2212252 2333226 2375202 2341355 2266806 
2043.340 2200763 2190506 2259512 2400023 2579909 2759369 2905813 2998888 
2047.197 3032720 3006094 2918489 2770407 2568543 2335259 2106594 1928268 
2051.054 1836587 1842311 1919515 2011114 2047632 1969805 1758765 1447251 
2054.912 1113969 849990 735435 803481 1033287 1358763 1696890 1977328 
2058.769 2158737 2241926 2259312 2259745 2283660 2352581 2463731 2596309 
2062.627 2719190 2800653 2817628 2755568 2611175 2392727 2120611 1824176 
2066.484 1539482 1303824 1143036 1067763 1068129 1116892 1176492 1211378 
2070.342 1199915 1139880 1050359 961852 908690 913537 980481 1092576 1220050 
2074.681 1324961 1377077 1363649 1291063 1183236 1072314 989415 953118 
2078.539 965671 1012031 1069756 1114400 1129748 1112009 1069158 1015950 
2082.396 967597 935087 922536 928679 950960 989182 1047037 1132372 1252548 
2086.736 1411614 1606423 1827371 2056754 2272169 2451435 2573910 2626876 
2090.593 2607242 2523049 2390028 2229004 2061015 1900978 1758000 1634093 
2094.450 1527810 1439605 1375283 1345468 1361156 1426673 1531701 1649359 
2098.308 1745059 1784682 1748253 1641244 1491236 1342510 1236000 1198320 
2102.165 1230085 1309275 1398949 1465769 1491934 1479566 1446753 1417532 
2106.023 1410551 1430097 1468129 1508093 1535658 1542341 1527777 1496755 
2109.880 1454233 1402839 1344571 1284483 1234970 1216329 1252282 1359727 
2113.738 1541444 1780025 2044603 2295085 2497522 2633543 2701353 2711855 
2117.595 2680115 2616875 2523916 2397758 2239029 2058385 1882675 1748885 
2121.452 1690703 1729490 1861943 2060016 2277098 2465764 2589242 2632243 
2125.310 2602242 2521916 2417349 2307210 2198232 2086317 1963382 1824209 
2129.167 1672808 1522524 1394163 1307314 1277571 1310039 1399348 1529273 
2133.025 1677332 1819851 1935158 2009316 2039742 2038011 2027858 2039842 
2136.882 2104829 2242160 2453934 2720724 3008797 3273056 3470305 3570215 
2140.740 3558790 3438876 3225552 2943307 2618242 2278298 1951866 1662164 
2144.597 1426175 1251883 1132605 1050857 982574 907195 815996 719637 644205 
2148.937 628410 706063 896803 1197490 1583675 2013743 2442872 2836837 
2152.794 3173682 3445790 3653876 3799050 3881050 3898936 3854840 3757371 
2156.651 3625140 3482262 3351217 3248386 3176652 3129559 3098089 3078801 
2160.509 3078434 3112739 3196846 3337961 3527021 3739858 3942167 4098978 
2164.366 4188193 4205590 4168154 4107105 4060413 4059109 4116170 4224795 
2168.224 4357777 4480823 4559403 4575408 4530306 4448686 4365876 4320227 
2172.081 4338834 4428902 4577785 4758676 4938135 5084544 5175773 5197166 
2175.938 5137817 4988775 4741424 4393522 3954806 3453471 2932999 2445238 
2179.796 2040375 1752711 1593519 1548061 1584108 1659936 1737873 1795695 
2183.653 1825873 1834391 1834591 1844008 1880545 1959887 2094841 2290788 
2187.511 2540780 2822363 3101226 3336659 3493852 3557687 3538579 3470104 
2191.368 3394093 3349314 3354189 3401306 3460185 3490746 3458414 3343738 
2195.226 3147214 2886133 2585742 2269438 1956758 1662630 1400312 1187655 
2199.083 1045875 993001 1039431 1179216 1387880 1625712 1851794 2029689 
2202.940 2137826 2174055 2152011 2097737 2041540 2013577 2038178 2129335 
2206.798 2288657 2503320 2745198 2972998 3144578 3224017 3192874 3057778 
2210.655 2849878 2617609 2412084 2279397 2244757 2309975 2454301 2643977 
2214.513 2839038 3001423 3103228 3127624 3070158 2937002 2742597 2504920 
2218.370 2241826 1970205 1702612 1447683 1213638 1008544 844247 735668 
2222.228 695974 733544 845906 1018474 1223938 1432192 1616167 1757568 
2226.085 1852293 1906370 1932695 1942513 1942413 1931497 1905904 1862043 
2229.942 1802815 1740136 1694629 1689539 1743795 1865437 2047133 2265507 
2233.800 2482859 2658778 2755902 2749766 2635643 2429444 2163399 1875853 
2237.657 1607487 1389376 1238691 1159282 1143734 1177056 1242579 1326025 
2241.515 1415138 1500546 1575595 1634592 1674405 1693730 1694429 1679394 
2245.372 1652552 1616666 1573333 1523854 1470290 1415903 1366640 1330611 
2249.229 1315356 1327753 1373222 1453169 1566649 1708866 1870063 2033284 
2253.087 2176353 2272902 2299416 2243392 2110123 1925273 1727993 1564587 
2256.944 1472086 1467265 1541876 1665990 1798357 1897717 1938552 1915156 
2260.802 1840680 1739237 1637485 1555410 1501975 1477272 1476408 1494694 
2264.659 1530437 1583443 1653883 1737241 1823843 1898582 1944843 1949569 
2268.517 1906403 1818986 1699784 1569010 1448215 1355539 1302163 1289268 
2272.374 1308344 1344006 1380268 1405299 1415603 1417099 1422651 1445788 
2276.231 1493896 1564787 1645800 1718712 1765319 1775666 1751147 1702412 
2280.089 1645800 1595481 1557837 1530271 1502175 1462577 1405099 1332240 
2283.946 1255306 1191044 1155295 1156790 1195430 1261453 1340150 1415869 
2287.804 1477139 1519897 1547096 1566815 1588165 1617298 1655546 1697423 
2291.661 1732650 1750515 1742997 1709232 1656144 1598341 1553980 1538384 
2295.519 1561129 1621255 1708766 1806176 1895088 1960719 1994470 1996101 
2299.376 1971104 1929067 1879547 1831596 1792301 1766218 1756204 1763157 
2303.233 1785315 1818420 1857418 1896918 1934159 1969972 2008451 2054989 
2307.091 2113120 2181847 2254050 2319002 2364208 2380666 2365008 2320501 
2310.948 2254949 2178884 2102332 2032485 1975231 1935324 1917053 1924973 
2314.806 1962183 2027958 2117148 2219646 2323199 2415383 2487757 2536547 
2318.663 2563677 2574443 2576043 2575309 2577543 2586542 2604342 2631209 
2322.521 2665913 2704687 2742964 2775942 2801120 2820195 2838705 2864920 
2326.378 2906981 2970763 3055576 3155224 3258200 3351551 3423380 3466530 
2330.235 3479189 3464827 3430761 3386946 3344772 3314722 3306142 3323838 
2334.093 3366544 3425017 3483932 3525418 3534170 3504741 3443919 3370751 
2337.950 3308846 3280401 3297361 3356693 3442350 3530395 3599848 3635933 
2341.808 3635264 3602922 3547432 3475248 3388182 3284474 3164203 3031886 
2345.665 2899342 2781011 2691050 2636643 2618109 2630209 2665880 2718157 
2349.522 2782612 2856949 2940939 3033754 3133264 3234833 3333487 3425685 
2353.380 3512992 3602321 3704334 3829435 3982158 4157516 4339705 4507439 
2357.237 4637728 4712551 4724442 4676444 4581837 4459063 4329631 4212281 
2361.095 4121723 4066902 4050681 4069477 4113661 4169091 4218437 4245640 
2364.952 4239684 4196356 4119515 4019010 3908665 3801256 3705971 3626510 
2368.810 3561963 3507346 3455809 3401940 3341801 3274258 3200784 3124920 
2372.667 3050838 2982373 2921191 2866721 2815160 2760837 2697385 2619675 
2376.524 2525349 2415949 2296484 2174321 2056487 1949269 1856087 1777197 
2380.382 1711693 1658206 1616067 1586303 1571172 1573466 1594716 1633794 
2384.239 1686313 1744061 1797159 1834358 1846537 1828901 1782121 1712824 
2388.097 1632962 1557072 1498185 1464905 1459319 1476508 1506364 1537354 
2391.954 1560963 1573400 1577024 1577291 1580283 1588298 1597942 1601002 
2395.812 1588531 1554212 1498883 1430297 1362685 1310471 1283253 1282456 
2399.669 1301764 1329182 1352714 1366042 1370330 1374219 1388711 1422285 
2403.526 1476973 1546066 1615967 1671212 1700550 1699918 1674205 1635191 
2407.384 1597377 1572502 1566749 1579219 1603995 1631898 1654149 1665358 
2411.241 1663595 1650656 1630102 1606057 1581747 1558469 1535691 1511884 
2415.099 1484587 1451806 1412645 1368402 1322402 1280295 1248527 1233674 
2418.956 1239854 1268233 1316287 1377908 1445090 1510221 1567015 1612675 
2422.813 1647230 1672875 1692234 1706670 1715618 1716716 1707103 1685049 
2426.671 1651189 1609582 1566450 1528575 1501743 1489008 1489673 1500213 
2430.528 1515707 1531269 1542907 1548959 1548759 1542508 1530570 1513446 
2434.386 1491768 1466933 1440868 1416069 1394528 1377144 1362552 1348725 
2438.243 1333104 1313828 1291561 1269030 1250122 1239024 1238957 1250521 
2442.101 1273383 1305852 1346332 1393365 1445456 1499482 1550322 1591158 
2445.958 1614537 1614304 1589063 1542508 1483755 1424114 1374219 1340416 
2449.815 1322868 1316287 1312864 1305719 1292193 1274945 1261221 1259892 
2453.673 1277803 1317151 1374053 1440802 1506497 1561196 1598009 1613606 
2457.530 1608717 1587433 1556374 1524186 1500180 1494162 1513613 1561827 
2461.388 1636122 1727361 1819851 1895554 1938586 1938220 1892459 1808172 
2465.245 1699452 1582378 1471687 1377809 1305021 1252780 1217758 1196260 
2469.103 1185761 1185263 1194400 1212641 1237993 1266903 1293755 1313861 
2472.960 1323001 1319079 1302894 1278268 1250787 1227327 1214667 1217259 
2476.817 1236232 1268764 1308244 1346166 1373986 1386252 1382296 1366175 
2480.675 1345701 1330279 1328252 1344006 1378274 1427804 1486548 1547130 
2484.532 1602432 1646066 1673174 1681323 1670580 1644470 1609249 1573799 
2488.390 1546498 1533663 1537221 1554844 1580150 1604693 1621355 1625479 
2492.247 1615967 1594517 1564488 1529806 1493397 1458355 1427039 1401210 
2496.104 1381665 1367438 1355207 1339785 1316420 1282456 1240353 1197589 
2499.962 1165827 1157089 1179282 1233441 1312797 1404900 1494727 1569908 
2503.819 1624182 1656810 1672642 1678363 1681157 1685082 1692200 1702479 
2507.677 1714853 1727361 1737840 1743229 1740302 1726762 1702313 1669848 
2511.534 1634592 1603330 1581048 1569176 1564887 1561096 1550156 1525815 
2515.392 1485950 1433621 1375548 1319644 1273815 1244008 1234106 1246899 
2519.249 1284117 1346166 1430995 1533064 1642441 1746556 1832461 1891560 
2523.106 1920913 1925140 1914357 1901877 1897584 1907801 1931829 1964846 
2526.964 1998930 2027159 2045668 2053525 2051727 2041840 2024196 1997766 
2530.821 1960386 1911362 1852027 1788475 1730754 1690471 1679860 1706870 
2534.679 1772306 1868366 1979625 2085751 2165064 2202295 2190539 2133997 
2538.536 2045801 1944643 1848833 1771009 1716084 1681423 1660169 1644503 
2542.394 1629969 1617032 1609914 1613606 1632197 1665457 1709464 1757268 
2546.251 1801983 1838151 1863574 1878615 1885504 1887267 1886502 1885570 
2550.108 1886402 1890495 1899015 1911761 1927569 1943511 1956226 1963681 
2553.966 1966044 1966510 1970671 1984950 2013943 2058485 2114352 2173689 
2557.823 2226073 2262610 2278064 2272802 2252618 2226207 2204060 2193503 
2561.681 2197799 2214517 2237031 2255815 2261944 2250120 2220278 2178317 
2565.538 2134496 2101866 2091278 2109357 2156273 2225441 2305545 2382832 
2569.396 2446104 2488424 2508919 2512418 2506786 2500421 2498955 2504420 
2573.253 2514918 2526482 2535814 2542146 2548212 2559611 2582342 2619975 
2577.110 2671547 2731060 2787747 2829434 2846476 2834203 2795050 2737996 
2580.968 2677015 2626509 2598909 2601275 2634043 2690750 2760370 2830067 
2584.825 2886867 2921291 2929030 2911150 2873358 2824998 2776676 2737495 
2588.683 2713722 2707987 2719557 2745398 2781945 2826132 2875993 2929764 
2592.540 2985209 3038592 3084874 3118279 3134365 3131996 3114374 3088712 
2596.397 3064152 3049236 3048636 3061616 3082071 3101159 3110503 3105764 
2600.255 3088812 3067355 3053107 3056744 3084808 3136601 3204323 3273924 
2604.112 3330449 3361535 3360366 3327109 3268750 3196178 3121249 3055209 
2607.970 3006361 2979971 2978236 3000589 3044365 3103595 3170878 3237269 
2611.827 3294089 3334722 3355958 3358696 3346542 3325707 3301568 3278264 
2615.685 3258768 3244847 3238772 3243312 3261706 3295391 3343370 3399703 
2619.542 3455575 3499698 3523347 3521743 3496524 3454373 3405848 3361134 
2623.399 3327310 3307744 3301768 3307110 3321166 3342702 3371385 3407016 
2627.257 3448395 3492316 3533936 3568411 3591763 3602455 3601886 3593467 
2631.114 3581574 3570983 3565438 3567843 3579469 3600383 3628248 3659122 
2634.972 3686890 3705470 3709714 3697717 3671920 3639073 3608034 3587754 
2638.829 3584881 3601152 3634095 3677500 3723883 3765927 3798649 3819139 
2642.687 3826761 3822047 3806571 3782873 3754196 3724752 3699555 3682880 
2646.544 3678335 3687391 3709346 3741563 3780165 3821212 3860824 3896295 
2650.401 3925817 3948654 3964837 3975604 3982760 3988713 3996136 4007171 
2654.259 4023491 4044962 4071083 4100048 4129450 4156679 4179294 4194817 
2658.116 4201375 4198732 4187758 4171600 4154405 4141024 4135404 4139753 
2661.974 4154170 4176785 4204821 4236003 4269430 4305201 4344289 4386728 
2665.831 4430944 4473894 4511222 4538609 4553844 4557058 4550730 4538609 
2669.688 4524581 4511423 4500040 4490733 4483233 4477777 4475434 4477743 
2673.546 4485343 4498131 4514168 4530675 4543833 4551098 4550395 4540652 
2677.403 4522170 4495755 4462879 4426124 4389271 4357041 4334818 4326954 
2681.261 4335655 4359952 4395363 4435129 4471215 4497060 4509079 4507004 
2685.118 4493545 4473358 4451398 4431313 4415279 4403698 4395966 4391413 
2688.976 4389338 4389171 4390209 4391514 4391079 4386560 4376051 4358647 
2692.833 4335320 4308447 4282446 4261399 4248918 4246944 4255042 4271002 
2696.690 4291347 4312597 4331873 4347000 4356839 4361124 4359651 4352790 
2700.548 4341277 4326485 4310757 4296769 4286763 4282045 4281811 4283818 
2704.405 4284019 4278732 4265816 4245539 4220947 4197527 4182104 4180532 
2708.263 4196992 4232590 4285592 4351184 4423045 4494650 4560072 4615558 
2712.120 4660301 4695937 4726284 4756063 4789698 4829667 4876006 4926439 
2715.978 4977380 5024808 5065670 5098591 5123869 5143215 5158873 5172922 
2719.835 5187140 5202867 5221177 5243042 5268865 5298548 5331117 5364930 
2723.692 5397639 5427666 5453802 5475881 5494202 5508933 5519605 5524907 
2727.550 5522759 5511786 5491383 5462728 5428069 5390325 5351680 5313172 
2731.407 5274399 5233786 5190057 5142343 5091383 5039154 4988876 4943430 
2735.265 4905226 4875503 4854126 4839785 4829801 4820755 4809363 4792143 
2739.122 4767420 4734960 4696205 4654205 4612477 4574102 4540819 4512361 
2742.979 4487619 4464620 4441991 4419530 4398308 4379599 4365374 4356505 
2746.837 4353359 4355501 4362329 4373206 4387799 4405739 4425924 4446711 
2750.694 4465993 4481292 4491034 4495051 4494315 4491369 4488958 4489461 
2754.552 4494449 4503655 4516077 4529704 4543096 4555184 4565731 4575643 
2758.409 4585855 4596906 4608559 4619644 4628552 4634111 4636522 4637862 
2762.267 4641646 4652698 4674401 4707895 4750637 4797705 4842231 4878619 
2766.124 4904623 4922015 4935889 4953014 4978955 5015691 5061681 5112202 
2769.981 5161723 5206421 5245087 5279263 5312367 5347084 5384421 5423472 
2773.839 5462090 5498262 5531350 5562628 5594411 5629386 5668896 5713411 
2777.696 5762598 5816189 5874355 5938709 6009826 6087674 6170308 6254572 
2781.554 6336432 6413532 6485331 6554283 6623650 6697032 6775980 6859722 
2785.411 6945365 7029813 7110707 7187776 7262770 7338181 7416605 7499088 
2789.269 7585768 7675804 7768423 7863423 7961177 8061451 8163436 8265411 
2793.126 8364641 8459535 8549719 8637082 8725308 8818354 8919130 9028252 
2796.983 9144304 9264179 9385001 9505586 9626305 9749464 9877709 10012670 
2800.841 10154187 10300466 10448660 10596395 10742246 10886651 11031238 
2804.216 11177847 11327803 11481758 11639580 11801681 11968780 12142895 
2807.591 12327068 12523868 12734951 12959963 13196294 13439761 13686235 
2810.967 13931961 14174949 14415573 14655475 14897086 15142570 15393997 
2814.342 15652575 15919764 16197398 16487809 16793566 17116530 17457462 
2817.717 17815270 18187812 18572364 18967086 19371488 19786912 20215922 
2821.092 20661344 21125448 21610528 22118288 22651600 23214648 23812342 
2824.468 24450432 25132996 25862766 26640024 27464310 28335608 29256150 
2827.843 30230792 31267334 32374394 33559732 34830164 36190528 37645060 
2831.218 39199372 40860600 42637852 44541996 46582464 48768448 51107660 
2834.593 53606804 56273252 59114196 62135836 65341032 68727424 72286616 
2837.969 76003624 79861392 83842672 87932304 92119424 96394592 100748568 
2841.344 105171288 109650048 114172504 118729488 123315688 127930016 
2844.237 132572368 137239232 141920016 146594048 151230656 155794272 
2847.130 160242848 164531216 168612416 172431840 175929024 179040096 
2850.023 181696944 183838640 185415472 186392608 186755440 186507536 
2852.916 185671728 184284000 182396976 180073680 177381184 174393088 
2855.809 171178640 167799600 164314352 160771760 157217472 153696704 
2858.702 150250464 146919408 143739920 140739984 137940832 135356384 
2861.595 132993864 130857704 128949624 127268016 125806840 124554024 
2864.488 123490280 122589360 121823496 121163816 120583856 120061240 
2867.381 119573944 119098872 118610648 118078136 117469104 116753224 
2870.274 115903624 114903440 113745360 112432808 110977912 109402152 
2873.167 107734408 106007656 104261456 102535672 100867968 99293952 97841624 
2876.543 96532368 95382944 94404496 93605896 92993640 92571072 92338920 
2879.918 92293840 92429424 92736400 93205856 93829312 94599720 95511480 
2883.293 96558600 97734096 99030168 100438376 101949880 103556992 105251712 
2886.668 107025600 108868752 110769272 112714744 114694424 116699592 
2889.562 118725344 120769080 122828592 124900480 126978264 129053848 
2892.455 131119328 133168696 135198736 137209696 139202096 141175824 
2895.348 143128176 145056176 146958192 148836624 150699424 152557776 
2898.241 154424752 156310256 158218816 160149344 162098272 164061840 
2901.134 166040240 168037696 170062288 172122352 174223664 176368448 
2904.027 178555376 180782816 183050864 185364144 187731184 190164112 
2906.920 192674784 195272480 197962768 200746032 203619328 206576768 
2909.813 209613456 212725200 215912000 219176832 222524944 225961088 
2912.706 229486064 233092032 236760704 240464384 244165664 247824256 
2915.599 251400864 254856976 258158864 261271152 264153840 266762560 
2918.492 269043424 270938656 272394208 273359840 273799712 273693664 
2921.385 273037568 271843840 270137824 267955456 265335296 262318160 
2924.278 258942304 255241840 251250592 247003264 242536208 237891632 
2927.171 233112032 228238400 223309456 218356176 213404688 208478496 
2930.064 203597312 198781328 194049008 189413728 184883936 180461072 
2932.958 176141472 171919008 167789632 163754496 159820816 156000080 
2935.851 152306304 148753472 145351392 142108496 139030992 136125616 
2938.744 133402032 130872536 128550576 126449880 124579576 122943312 
2941.637 121538000 120354384 119379496 118597848 117995352 117559000 
2944.530 117277296 117141368 117141936 117270480 117518224 117874664 
2947.423 118327600 118861728 119456096 120085712 120719072 121319448 
2950.316 121850872 122276528 122564888 122692760 122644816 122414912 
2953.209 122003984 121418040 120664128 119748528 118676360 117450568 
2956.102 116074960 114555680 112901752 111127200 109247184 107276480 
2958.995 105227688 103109232 100925648 98679152 96371672 94005816 91586448 
2962.370 89119792 86613176 84074384 81510776 78929696 76339304 73748480 
2965.746 71167864 68609096 66084556 63606836 61186504 58832396 56550152 
2969.121 54342096 52207756 50145248 48152016 46226996 44370180 42582548 
2972.496 40865516 39219644 37644228 36137088 34696236 33319932 32007746 
2975.871 30760366 29578482 28461502 27406710 26408834 25461344 24557778 
2979.247 23693108 22865324 22074430 21322068 20609502 19937234 19303102 
2982.622 18704002 18135610 17594076 17076688 16581740 16108193 15655940 
2985.997 15224339 14813185 14421671 14049263 13695023 13358260 13037565 
2989.372 12731437 12438515 12157887 11889734 11635121 11395998 11173461 
2992.748 10967485 10776653 10597143 10424699 10255342 10087035 9920048 
2996.123 9756174 9598358 9448997 9308388 9175505 9048009 8924271 8803679 
2999.980 8688021 8579965 8482612 8397138 8322454 8255179 8190549 8124003 
3003.838 8052843 7976903 7897704 7817236 7736244 7653850 7566449 7470469 
3007.695 7362748 7243128 7114749 6983782 6857534 6743201 6645452 6565989 
3011.552 6502955 6452271 6409160 6368877 6328564 6286474 6242639 6197801 
3015.410 6153135 6109583 6067076 6025280 5982547 5937601 5889032 5835902 
3019.267 5778614 5718044 5655602 5592632 5529974 5467794 5405724 5343428 
3023.125 5280604 5218125 5156995 5098390 5043009 4990552 4939877 4889074 
3026.982 4836904 4782461 4726183 4668908 4611942 4556355 4502618 4450795 
3030.840 4401990 4357141 4318855 4289909 4272977 4268995 4276992 4293556 
3034.697 4313467 4331371 4342181 4343352 4334416 4316814 4293155 4265481 
3038.554 4235066 4201475 4163136 4118110 4065296 4004798 3938924 3871656 
3042.412 3807841 3752291 3708645 3678569 3661494 3654510 3653508 3654009 
3046.269 3651704 3643350 3627580 3604058 3574491 3540784 3505910 3472175 
3050.127 3441381 3414330 3391121 3371018 3353254 3337594 3323904 3313120 
3053.984 3305574 3301601 3300299 3299932 3298863 3295992 3291752 3288447 
3057.842 3288614 3294557 3305908 3319030 3327410 3323470 3301401 3259035 
3061.699 3200250 3133164 3068223 3014969 2978703 2958953 2950346 2944275 
3065.556 2932699 2911117 2879395 2841040 2801687 2767039 2740397 2723425 
3069.414 2715289 2715123 2721424 2732728 2746298 2758769 2764771 2759169 
3073.271 2737396 2697819 2642477 2576776 2507419 2441472 2383131 2334093 
3077.129 2293053 2257547 2225007 2194402 2165763 2139790 2116915 2095773 
3080.986 2074299 2049363 2018604 1981955 1941847 1902276 1868632 1845771 
3084.844 1836288 1840614 1855721 1877151 1899015 1915755 1923243 1919815 
3088.701 1906236 1885337 1860779 1836488 1814161 1793898 1773470 1749816 
3092.558 1720508 1685115 1645834 1607088 1573899 1550189 1537420 1533796 
3096.416 1534993 1536323 1534461 1528209 1519232 1511019 1507661 1512116 
3100.273 1525948 1548559 1578621 1613373 1649958 1685215 1715252 1736642 
3104.131 1746323 1743396 1729357 1708733 1687643 1672176 1666721 1672010 
3107.988 1685348 1701281 1713955 1719045 1714221 1700450 1679893 1655379 
3111.845 1629104 1602897 1578488 1557970 1544004 1539282 1545201 1560630 
3115.703 1581913 1603496 1619659 1626909 1624415 1614803 1601401 1587600 
3119.560 1574663 1561229 1544902 1523721 1498152 1472052 1451174 1442364 
3123.418 1450443 1476541 1517503 1566450 1615269 1655546 1680525 1686346 
3127.275 1672176 1640313 1595514 1545434 1497620 1460716 1440503 1440004 
3131.133 1457624 1488610 1525383 1559965 1586103 1600403 1603396 1596845 
3134.990 1584706 1570739 1557438 1547096 1540646 1538850 1541044 1545800 
3138.847 1550654 1552317 1548460 1538118 1522524 1504801 1488477 1476740 
3142.705 1470490 1467897 1466600 1464073 1459386 1453701 1449346 1448914 
3146.562 1452537 1458255 1461879 1459585 1448548 1429300 1404733 1379637 
3150.420 1358098 1342344 1332772 1327720 1326324 1328285 1334832 1347928 
3154.277 1368203 1394761 1424380 1452471 1475045 1489673 1496057 1495691 
3158.135 1490438 1481195 1467398 1447717 1421321 1389243 1355240 1324862 
3161.992 1304223 1297942 1307380 1330179 1361023 1393132 1419925 1436547 
3165.849 1440336 1431460 1411814 1385421 1357068 1331143 1311568 1300867 
3169.707 1299637 1306516 1318979 1334467 1350520 1365677 1379570 1392168 
3173.564 1403470 1412778 1418961 1422119 1422418 1421521 1421388 1423981 
3177.422 1430197 1439239 1449678 1459618 1467897 1474380 1479566 1484420 
3181.279 1488942 1491868 1491569 1486182 1475144 1459585 1441467 1423249 
3185.136 1406661 1392767 1381997 1375216 1374285 1381930 1400346 1429399 
3188.994 1464738 1498850 1521327 1523222 1499847 1453003 1391670 1327886 
3192.851 1274447 1240353 1227992 1233408 1248128 1263215 1270924 1267402 
3196.709 1253345 1232045 1207922 1185462 1167621 1155594 1149448 1147721 
3200.566 1148850 1150345 1150312 1147986 1144266 1141608 1144066 1155926 
3204.424 1179482 1214535 1257399 1301830 1339618 1362851 1365809 1345834 
3208.281 1303426 1243775 1174565 1105896 1048067 1009507 995559 1006020 
3212.138 1035678 1075901 1116095 1146890 1162671 1163335 1152604 1136093 
3215.996 1119383 1105066 1092809 1079987 1064276 1044579 1022460 1001038 
3219.853 983836 972578 966534 962947 958332 949797 936183 918551 899260 
3224.193 881397 867221 859020 857825 865129 881397 906199 937710 971914 
3228.532 1003263 1026810 1039000 1039000 1029168 1013990 997119 981245 
3232.390 965870 948967 927350 899625 866789 833092 804543 787082 785456 
3236.729 801091 831797 872831 917754 958963 989548 1004592 1001968 982773 
3241.069 951491 915762 883821 862307 854704 860415 875122 892254 906498 
3245.409 915297 919415 921838 926188 933626 942559 948204 945348 930771 
3249.748 904871 872001 839864 816460 807431 815033 837076 869146 904639 
3254.088 938242 966069 986094 997485 1000540 995359 982839 963645 938906 
3258.427 910184 878741 845541 811182 775498 738522 700620 662788 626287 
3262.767 593537 567028 549710 544567 554454 580797 623068 678418 741576 
3267.107 805904 864897 914434 953616 985131 1013957 1044712 1079322 1115397 
3271.446 1145960 1162006 1154697 1119284 1057035 975633 887174 804211 737560 
3275.786 692456 668596 660864 662257 665874 666837 664049 658740 654592 
3280.125 655554 665310 686151 718276 760196 808692 859053 905502 943090 
3284.465 967032 975168 967431 946842 917953 886145 856497 832229 814966 
3288.805 804609 800028 800161 804709 813771 827150 844213 862905 879837 
3293.144 891424 894944 889332 875720 856597 835084 813041 790933 767698 
3297.484 741908 713132 683264 656384 638332 634715 649349 682334 729926 
3301.823 785224 839234 883755 911778 919381 905901 874292 830403 782502 
3306.163 740049 712402 706428 725578 767963 827116 892819 954878 1004426 
3310.503 1035944 1048133 1042852 1023921 995060 960125 922137 884087 849592 
3314.842 821606 802850 793389 791199 791630 789506 781406 766835 749907 
3319.182 736730 735070 749409 780245 822668 868283 907395 931634 937644 
3323.521 926421 903444 875720 851086 835250 831100 838868 856763 880866 
3327.861 906631 929907 946709 954646 952919 942857 927118 909221 892686 
3332.201 879737 871271 866689 864897 864863 866357 870175 877347 889299 
3336.540 906266 927550 951225 974305 993167 1004193 1004160 990843 963678 
3340.880 924130 876749 827482 784394 754985 744065 752861 778419 813705 
3345.219 849724 878376 893914 894645 882858 863336 842487 824693 812543 
3349.559 806302 804576 805273 807398 810651 815962 824826 837706 854273 
3353.899 873462 893217 911977 928712 943322 955542 965372 971880 974139 
3358.238 970785 961686 948038 932597 919248 911346 910117 914168 919581 
3362.578 921407 915463 900223 878210 854870 836677 829739 836644 855700 
3366.917 881630 907926 928015 937843 937345 928280 914534 899293 885348 
3371.257 874126 866424 862938 864764 872732 886743 904938 923299 936781 
3375.597 940433 930970 908291 875819 838968 804078 776095 758005 750239 
3379.936 751400 759632 773241 791497 813439 838238 863336 885448 900356 
3384.276 904639 896903 878177 852081 823863 798900 782070 775863 781274 
3388.615 797140 821141 849558 878243 902912 918618 921706 909951 883423 
3392.955 844778 799199 753359 713564 685653 673872 680277 704570 744596 
3397.295 796111 852945 908192 954247 984433 993699 980216 945381 893582 
3401.634 831864 768262 709913 662390 628974 610061 604254 609431 623201 
3405.974 643342 668264 697169 729461 764810 802651 841956 880434 914102 
3410.313 938507 948834 941363 916028 876450 831067 789838 763648 759798 
3414.653 780079 819913 869113 916592 950727 964874 957369 932364 896405 
3418.993 857493 822734 796410 780112 773938 776859 788244 807531 834022 
3423.332 865826 900090 932497 957966 972445 972445 957302 928015 887473 
3427.672 840263 790568 743600 703242 673308 656483 654160 666107 689868 
3432.011 721562 755250 784161 802286 805074 790236 758968 715555 666007 
3436.351 617394 576384 547387 532492 531297 542146 562151 589091 620978 
3440.691 655853 690764 722425 746388 758902 757607 743302 719438 691494 
3445.030 665742 646827 636971 635544 639493 645997 653629 663950 680974 
3449.370 708486 748612 800095 857393 911844 953716 975633 973408 948436 
3453.709 906498 856265 807165 766967 740879 730955 736564 754885 782435 
3458.049 814867 847998 877812 900356 911910 909785 892985 862871 823631 
3462.389 781971 745592 721562 714227 723554 745260 771581 794120 805207 
3466.728 801356 784261 760096 736863 721629 718044 724549 735469 743302 
3471.068 741211 725877 698695 664315 630235 603159 587532 584679 593371 
3475.407 610824 634615 663120 696206 733876 775631 819216 861079 896604 
3479.747 921706 933361 931401 917887 896537 872234 848961 830237 818021 
3484.087 813506 817390 829108 848131 871968 896803 918584 933261 938474 
3488.426 934456 923997 911313 900356 893350 889764 886710 879638 864631 
3492.766 839765 806336 768395 731353 700355 678286 665410 659835 658872 
3497.105 660996 666206 676726 695111 723089 759565 800759 840927 872765 
3501.445 890395 890428 873097 842587 804609 765109 728797 697036 669890 
3505.785 645632 622471 599145 575156 551733 531795 518525 515573 524497 
3510.124 544999 573497 604487 632658 653663 665974 671084 673042 675930 
3514.464 683629 696937 714460 731884 744961 750438 747251 737759 725844 
3518.803 717048 715422 723852 742737 770253 802983 835847 863569 881065 
3523.143 885813 877778 860614 840462 823498 814966 816925 828179 844645 
3527.483 861045 872699 876816 872798 861510 844014 821473 794053 762752 
3531.822 729992 699658 675564 661063 656151 657744 659603 654492 637701 
3536.162 609431 575090 543838 524895 524032 541781 574426 616000 660897 
3540.501 705798 749641 793788 839499 886544 932962 975400 1010204 1035811 
3544.841 1052152 1060091 1060091 1050558 1028770 992835 943953 887008 830038 
3549.181 780742 745028 724582 716916 715289 712601 704005 689071 671881 
3553.520 658043 651506 651871 654791 653828 643840 622504 592542 560326 
3557.860 534349 522042 528046 552496 591746 640024 690233 737128 776859 
3562.199 807365 828013 839366 842952 841889 841060 846205 863270 895608 
3566.539 941297 991308 1032689 1054544 1051089 1022958 974338 911346 840628 
3570.879 769092 703674 650709 614872 598448 601069 618887 646727 679281 
3575.218 712369 743401 771747 797074 819149 836711 847865 851417 847201 
3579.558 837308 825058 814236 807796 806767 810452 817357 826087 836843 
3583.897 851484 873197 905071 948137 999012 1047901 1080884 1083342 1048731 
3588.237 982540 899559 816128 744563 692290 661129 650045 656052 675299 
3592.577 704039 738854 777622 818087 857825 892752 917190 924960 911246 
3596.916 874093 816394 745758 674702 616365 583816 584811 619717 680974 
3601.256 755416 830403 895475 947141 987256 1021563 1056636 1098157 1148950 
3605.595 1209019 1273849 1335830 1385487 1414108 1416601 1395027 1357766 
3609.453 1315988 1280096 1256834 1247896 1250787 1259161 1265175 1261553 
3613.310 1244506 1216229 1183502 1154531 1136126 1131907 1142538 1165096 
3617.168 1193436 1219319 1232610 1225234 1194599 1145761 1089852 1038501 
3621.025 1001238 981743 978854 987721 1002167 1017013 1029268 1040428 
3624.883 1056204 1085833 1138884 1222542 1337458 1472884 1599771 1675369 
3628.740 1662630 1559932 1405531 1248893 1122871 1036608 986957 964741 
3632.597 960390 965006 972677 979784 985131 989481 993832 999345 1007116 
3636.937 1018208 1033453 1052684 1073908 1093340 1105863 1105830 1089653 
3640.794 1056138 1008976 954945 903078 862838 840761 841093 865727 916360 
3645.134 994994 1103770 1244141 1412512 1597975 1780524 1932628 2028191 
3648.991 2051228 2001760 1896086 1760828 1622985 1501676 1406728 1340948 
3652.849 1303791 1293755 1308344 1343042 1389243 1433056 1457723 1449711 
3656.706 1406828 1338887 1262783 1193303 1140412 1106727 1088922 1078525 
3660.564 1065073 1038767 993599 929177 851152 769988 696737 642148 613246 
3664.903 612550 639161 689768 760661 847998 947971 1055706 1162372 1254774 
3669.243 1316254 1335032 1312864 1268299 1226164 1205331 1217093 1265208 
3673.100 1348160 1457923 1576060 1668750 1692733 1623218 1479400 1311468 
3676.958 1162970 1055939 994496 972711 980614 1006618 1038069 1064741 
3680.815 1080751 1085302 1081581 1074805 1069989 1071118 1079489 1094768 
3684.673 1115729 1141508 1173269 1213206 1264079 1326191 1394063 1453634 
3688.530 1484520 1468728 1399515 1286477 1149382 1012363 893948 803813 
3692.387 744463 712601 702446 708320 726076 752595 784991 820909 857460 
3696.727 892520 925557 958199 993632 1035047 1084172 1139316 1194366 1239156 
3701.067 1263082 1258828 1227261 1176658 1120048 1068461 1028637 1003297 
3704.924 992171 993566 1006153 1028870 1060888 1100781 1146558 1194898 
3708.781 1241482 1281957 1311867 1327919 1327554 1308942 1272353 1221080 
3712.639 1161607 1102209 1051123 1014555 994994 991175 998415 1009939 
3716.496 1017511 1014090 996555 966966 932132 901684 885514 890163 917655 
3720.836 965471 1027143 1093805 1156093 1206760 1242446 1263049 1272021 
3724.693 1274447 1275842 1280727 1291262 1306217 1322136 1334733 1341446 
3728.551 1342510 1340815 1341081 1349390 1371161 1409986 1465802 1535458 
3732.408 1613240 1693797 1773703 1849332 1913125 1951566 1946940 1888166 
3736.266 1780291 1643073 1501310 1373355 1270559 1195563 1145993 1116460 
3740.123 1101512 1097260 1103737 1125097 1169548 1246799 1362552 1509556 
3743.980 1659504 1770942 1814727 1794863 1739071 1676899 1627275 1600303 
3747.838 1599206 1622419 1662797 1708267 1743096 1751413 1723070 1657807 
3751.695 1565352 1461713 1362785 1279963 1217326 1173701 1143668 1120480 
3755.553 1097393 1069557 1036077 999942 967132 943953 932730 930106 926819 
3759.892 911877 879040 829374 771216 715721 674635 657180 668463 709946 
3764.232 777191 860747 947075 1024718 1087760 1137522 1179216 1218389 
3768.089 1257632 1295416 1325028 1338090 1328418 1295516 1245071 1186392 
3771.947 1128220 1077031 1036210 1006950 988352 978755 975533 977194 982540 
3776.286 992138 1006850 1028072 1055906 1088789 1122174 1150345 1167754 
3780.144 1171608 1162206 1142073 1114234 1079987 1040893 997651 952454 
3784.001 909254 872732 848031 837640 841159 855069 873993 892951 907229 
3788.341 913936 911977 901551 883887 861211 836744 814303 798767 795116 
3792.680 807033 837043 884452 946610 1017478 1089354 1153402 1202606 1234637 
3797.020 1252681 1264245 1276773 1295815 1323532 1358896 1396722 1427471 
3800.877 1439738 1424147 1380867 1320574 1257200 1201144 1157189 1126526 
3804.735 1107624 1097127 1089254 1076831 1053348 1016382 970253 923532 
3808.592 885049 860547 853243 862871 888004 925258 971847 1025316 1084903 
3812.932 1151840 1227626 1312831 1404002 1491402 1559666 1594284 1590626 
3816.789 1557904 1513446 1473881 1449279 1443428 1453534 1469559 1473815 
3820.647 1445689 1374086 1266571 1144664 1030563 937710 869976 826087 802385 
3824.986 793954 794916 799696 803979 805838 806900 810883 821971 843483 
3829.326 876251 918618 966036 1011732 1048200 1070686 1078891 1078060 
3833.183 1076167 1083142 1106461 1150046 1212774 1288737 1367571 1437012 
3837.041 1487080 1512848 1517037 1506896 1491436 1475909 1460250 1440536 
3840.898 1412545 1374452 1328285 1278900 1233574 1198287 1175096 1162006 
3844.756 1154099 1146159 1134930 1120779 1106129 1094536 1089553 1092875 
3848.613 1104933 1126061 1157787 1205098 1276773 1384689 1539482 1740601 
3852.470 1959454 2134463 2200230 2136760 1983719 1800253 1630435 1492699 
3856.328 1389775 1315423 1259825 1212840 1166657 1116460 1060888 1001337 
3860.185 941496 887075 844047 817689 811182 824062 851716 886178 918385 
3864.525 940533 950130 950229 948204 951657 965704 992702 1031161 1075669 
3868.865 1116095 1141309 1143302 1123935 1093207 1062083 1037505 1021264 
3872.722 1012197 1008046 1006319 1005555 1004824 1003728 1001636 998780 
3876.579 995559 993865 996223 1006717 1027807 1059991 1097658 1130213 
3880.437 1145761 1137322 1108022 1069092 1035412 1019471 1029866 1068893 
3884.294 1130844 1200015 1253877 1272519 1248760 1191044 1116228 1041291 
3888.152 977625 932597 909819 909885 929542 961353 994861 1018806 1026578 
3892.491 1018308 999610 977991 959959 950362 950462 960357 978821 1005057 
3896.831 1038767 1079920 1128585 1182904 1238093 1286975 1321040 1334932 
3900.688 1328783 1308477 1283785 1265242 1260457 1270392 1288869 1304622 
3904.546 1306317 1287607 1249258 1197921 1142073 1089055 1043550 1007780 
3908.403 980980 961586 947905 938541 933560 933228 938142 947307 958564 
3912.743 969290 975766 975832 968991 956671 942193 930405 925823 931700 
3917.082 948303 973674 1004393 1036874 1069026 1099485 1127722 1152704 
3920.940 1173169 1186824 1191542 1184798 1165694 1134598 1094968 1052617 
3924.797 1013791 984267 966401 959394 960357 965338 971449 976364 980116 
3929.137 983636 989348 999610 1015518 1036442 1058696 1075934 1082113 
3932.994 1072480 1046240 1006286 959062 912674 874259 849592 841425 849260 
3937.334 869644 897434 927848 957867 986459 1014987 1045377 1078226 1112407 
3941.673 1144033 1167853 1179581 1177455 1164033 1144133 1123768 1106793 
3945.531 1095632 1089387 1085700 1081382 1073775 1062017 1047834 1034350 
3949.388 1025814 1024884 1032390 1045908 1061486 1074041 1078658 1072580 
3953.246 1055407 1028936 996887 963778 933394 907328 885979 867851 851617 
3957.585 836711 824096 815996 815498 824693 843749 870839 902414 934091 
3961.925 962084 984400 1000872 1012662 1021065 1027143 1031360 1033885 
3965.782 1034715 1034715 1035379 1038103 1043948 1052252 1061884 1070354 
3969.640 1075137 1074141 1066999 1054045 1036741 1016814 996854 979120 
3973.497 966169 960822 964375 976829 996190 1018374 1038501 1052617 1059160 
3977.837 1059028 1055806 1053348 1054544 1058828 1062349 1059526 1045343 
3981.694 1017876 979983 939271 905801 887706 889831 911280 946477 986924 
3986.034 1024054 1051687 1067331 1071185 1064973 1051422 1032822 1011666 
3989.891 991773 977958 975467 988584 1018208 1060688 1107923 1149681 1175927 
3994.231 1180877 1164897 1134964 1101678 1076366 1067365 1077662 1104036 
3998.088 1139548 1175794 1205431 1223838 1229387 1222875 
##END=
