##TITLE=lc_1 Sep 01 12:59:04 2026 (GMT+02:00)
##JCAMP-DX=5.01  $$ Nicolet v. 970
##DATATYPE=INFRARED SPECTRUM
##ORIGIN=Vojna akademija
##OWNER=Nicolet
##LONGDATE=2026/09/01
##TIME=12:59:35
##SPECTROMETER/DATA SYSTEM=Nicolet iS20
##DATA PROCESSING=
Ratio against background
%Transmittance->Absorbance
Truncated
ElementMultiply or ElementDivide
##COMMENTS=
Number of sample scans: 8
Collection length: 11,90 sec
Sample gain: 8,0
Background collected on: Tue Sep 01 12:38:26 2026 (GMT+02:00);
Number of background scans: 8
Background gain: 8,0
Sample spacing:  1,000
Number of scan points: 12415
Resolution points: 8286
Number of FFT points: 65536
Apodization: N-B strong;
Phase correction: Mertz;
Laser frequency: 15798,00 cm-1
Number of rejected sample scans: 0
Number of rejected background scans: 0
Bench serial number: BER2010005;
##RESOLUTION= 4,000
##XUNITS=1/CM
##YUNITS=ABSORBANCE
##FIRSTX=400.156891
##LASTX=4000.123047
##FIRSTY=0.008977
##MAXX=4000.123047
##MINX=400.156891
##MAXY=0.178511
##MINY=-0.004978
##XFACTOR=1.000000
##YFACTOR=1.000000E-009
##NPOINTS=7468
##DELTAX=0.482117
##ZPD=6100
##XYDATA=(X++(Y..Y))
400.157 8976969 5352720 2873625 1475610 859551 671118 661892 742107 992603 
404.496 1576659 2630042 4129316 5846615 7379296 8335052 8443352 7654693 
408.353 6147220 4287499 2515151 1181409 469033 325597 530667 785224 845143 
412.692 584148 15805 -739815 -1520474 -2196095 -2710898 -3068314 -3306747 
416.549 -3458441 -3524836 -3461827 -3190853 -2647672 -1861352 -954205 -68283 
420.406 720766 1404002 1991474 2471062 2788714 2862318 2623142 2062846 
424.263 1282356 471255 -142188 -402954 -276117 142400 677755 1122871 1317484 
428.602 1207690 846736 371293 -69940 -370313 -516120 -576778 -664193 -857688 
432.941 -1159533 -1484152 -1699594 -1673981 -1345375 -760058 -73551 515706 
436.798 862407 930339 804012 630998 557174 655952 910151 1215299 1431095 
441.137 1424645 1132572 587864 -90711 -755825 -1298765 -1682332 -1943858 
444.994 -2153863 -2365183 -2580451 -2741717 -2755348 -2545799 -2088940 
448.369 -1438944 -704355 -21370 497825 788078 844977 727503 541084 410293 
452.708 424057 609099 920776 1270891 1553614 1685282 1627973 1402606 1092410 
457.047 826851 741078 897998 1250521 1654016 1949036 2007619 1770410 1245869 
461.386 499285 -364255 -1226974 -1973248 -2524750 -2841141 -2903418 -2698550 
465.243 -2206908 -1415925 -344656 922403 2225773 3372921 4171365 4502450 
469.100 4349309 3795708 2991548 2117748 1350720 803248 507644 402732 371326 
473.439 284681 65742 -290389 -725856 -1145852 -1448290 -1533218 -1333979 
477.296 -830339 -62585 877413 1856054 2726859 3366110 3672521 3592665 
481.152 3127724 2338623 1337292 262202 -738625 -1549198 -2095106 -2358163 
485.009 -2373652 -2219897 -1992147 -1769459 -1602219 -1499936 -1436830 
488.384 -1363906 -1227073 -982405 -605632 -99026 510862 1175661 1836621 
492.241 2424446 2871124 3126589 3165571 2997653 2666613 2247455 1830066 
496.098 1504336 1343108 1370995 1559666 1829700 2082755 2223475 2189806 
499.955 1968075 1596080 1149481 714725 360714 107930 -76300 -255620 -486797 
504.294 -796507 -1162177 -1519483 -1771472 -1819582 -1596772 -1091156 
507.669 -361639 479216 1286676 1937521 2352548 2509252 2441406 2225341 
511.526 1956592 1715186 1552816 1477638 1465170 1475078 1475743 1456726 
515.383 1432823 1435117 1494095 1621488 1803314 2005422 2193003 2350982 
519.240 2494656 2662012 2893305 3213002 3609003 4033758 4409421 4654172 
523.097 4695568 4488892 4030046 3358897 2556311 1723003 970685 389665 27999 
527.436 -107473 -46782 161293 462266 810518 1168152 1504702 1798224 2028157 
531.775 2175354 2224042 2162533 1991075 1728193 1416833 1118254 903311 
535.632 835383 946908 1231946 1642840 2108025 2542713 2875993 3071460 
539.489 3132930 3103328 3049370 3046634 3151620 3390219 3748280 4177454 
543.346 4603034 4942056 5126451 5109084 4877949 4457155 3904152 3292420 
547.203 2697252 2186942 1808405 1592222 1550555 1674172 1930132 2261810 
551.059 2601775 2880363 3049236 3093717 3038759 2940205 2865887 2874192 
554.916 2985609 3174282 3373289 3502203 3487172 3289849 2919189 2426378 
558.773 1886203 1372158 945580 642579 479813 460011 575322 807066 1121211 
563.112 1470523 1794364 2032052 2140590 2104330 1942979 1702712 1442996 
566.969 1210547 1026644 883356 756014 618788 466678 322580 234785 257494 
571.308 428137 753159 1199151 1702845 2182480 2567010 2810324 2902978 
575.165 2871724 2772041 2669813 2615009 2631343 2706420 2801820 2865187 
579.022 2852179 2739729 2533914 2267906 1989610 1743130 1549225 1401143 
582.879 1271389 1130545 960390 768859 586603 457092 414439 470327 606245 
587.218 784128 958863 1094602 1178884 1221712 1248062 1283419 1343241 
591.075 1425576 1513845 1585205 1624016 1627574 1605658 1573333 1543073 
594.932 1518135 1492666 1453202 1384856 1276274 1122971 928811 706627 481737 
599.271 287068 163182 149360 267672 514611 852745 1219785 1533796 1718712 
603.610 1726097 1548759 1227360 837275 471056 203059 74856 84665 195932 
607.949 350799 493546 591082 635146 640256 630899 628078 640621 664381 
612.288 688142 704205 714659 732183 773374 849791 956572 1070952 1154000 
616.627 1166026 1083309 908988 677058 444621 278481 231237 331433 575057 
620.966 930140 1342743 1752145 2107326 2370438 2524549 2571876 2527949 
624.823 2412784 2245257 2039642 1802715 1537487 1247497 939603 629671 341845 
629.162 103125 -59239 -128011 -101444 6593 172662 369535 576284 783298 
633.501 988817 1194566 1397986 1586103 1738505 1833959 1858782 1815193 
637.358 1720941 1605159 1493098 1400512 1325560 1255173 1174830 1081349 
641.215 989647 932696 948104 1061386 1273981 1558502 1864872 2132765 2315105 
645.554 2387396 2353148 2236797 2073766 1896918 1728226 1580350 1457690 
649.411 1362818 1297776 1263348 1255738 1263580 1269728 1254442 1201875 
653.268 1107026 977493 832627 696306 594367 546989 566431 655985 811182 
657.607 1018009 1254442 1493065 1702213 1852393 1925173 1914989 1832495 
661.464 1698288 1538384 1375548 1222974 1084903 957169 831963 701284 560061 
665.803 409232 258124 128744 63356 113200 306531 616166 972777 1309640 
670.142 1587500 1792401 1918583 1964147 1932162 1833560 1690371 1531069 
673.999 1387515 1283951 1231713 1228590 1259360 1301265 1328119 1320375 
677.856 1269562 1183602 1084072 1005190 981909 1036741 1171408 1362187 
681.713 1566649 1735511 1833127 1848167 1801385 1735378 1700949 1734014 
685.570 1839715 1988878 2128203 2204126 2177718 2045901 1842411 1627076 
689.427 1460017 1383858 1411116 1525483 1692832 1879747 2069138 2267006 
693.284 2498055 2792082 3170611 3631957 4147681 4666530 5133223 5501954 
697.141 5750208 5884733 5937366 5954026 5977373 6039357 6149270 6296156 
700.998 6455702 6602220 6719275 6805429 6873557 6945062 7039613 7165341 
704.855 7314694 7467637 7601717 7699649 7759855 7796489 7835858 7905228 
708.712 8024322 8201725 8435244 8718040 9046317 9424143 9863981 10383227 
712.569 10995656 11707653 12514660 13404459 14361595 15374360 16437976 
715.943 17551812 18713964 19912846 21121796 22302692 23406234 24386150 
719.318 25209080 25857458 26331834 26645660 26819876 26876164 26834256 
722.693 26710384 26514622 26252278 25924174 25528914 25068996 24551854 
726.068 23992112 23410430 22826594 22256236 21708918 21187546 20693314 
729.443 20228490 19797280 19405580 19058060 18755340 18493110 18264316 
732.817 18060268 17873130 17696462 17523452 17346066 17156304 16949058 
736.192 16727479 16505774 16310051 16171742 16114209 16145090 16247787 
739.567 16386740 16512450 16581293 16566629 16465232 16295224 16086770 
742.942 15868552 15656490 15453802 15254572 15052036 14845687 14643583 
746.317 14459007 14305158 14186896 14099780 14028729 13955603 13861587 
749.692 13733119 13564895 13358874 13123718 12873023 12624246 12394056 
753.066 12194485 12028627 11888951 11757865 11613476 11438723 11226568 
756.441 10985529 10733959 10496994 10294935 10137296 10022639 9941744 
759.816 9884217 9842967 9817208 9809582 9822394 9853914 9897199 9942320 
763.673 9981342 10010161 10028878 10039086 10039425 10023589 9982563 9909166 
767.530 9804702 9682883 9568008 9484690 9451232 9468875 9521977 9580811 
771.387 9614076 9599137 9529191 9413205 9271592 9127758 8999092 8894441 
775.244 8814194 8753909 8707628 8669396 8634818 8597707 8549584 8480956 
779.101 8381936 8246771 8075325 7874557 7655469 7432986 7223014 7038400 
782.958 6890523 6784999 6721058 6690067 6676843 6662409 6627755 6560977 
786.815 6460242 6335826 6205565 6090765 6007944 5962996 5950533 5955841 
790.671 5961182 5950533 5916507 5862399 5800877 5749000 5725598 5744232 
794.528 5809003 5913013 6038517 6164192 6269396 6343828 6391473 6432901 
798.385 6496565 6610193 6788029 7021900 7281133 7518911 7693139 7776384 
802.242 7770851 7706360 7633785 7602358 7642654 7757696 7921054 8088422 
806.099 8212766 8263723 8235525 8149019 8041502 7959321 7942684 8014399 
809.956 8178697 8418521 8700528 8981061 9219434 9383444 9457835 9448320 
813.813 9378331 9281002 9185150 9106271 9040228 8967599 8861367 8703639 
817.670 8494606 8257712 8030263 7853605 7757797 7749500 7812074 7909109 
821.527 7999853 8048016 8034144 7957431 7832991 7683865 7534048 7402753 
825.384 7299193 7222778 7163590 7106901 7036514 6940551 6815964 6669811 
829.241 6518494 6381117 6274573 6204556 6164561 6136097 6097385 6029446 
833.098 5925072 5790971 5645834 5513497 5412937 5354330 5335747 5345508 
836.955 5366340 5383717 5387809 5376135 5352149 5322464 5294289 5272890 
840.812 5262024 5263164 5277015 5303814 5344803 5402738 5481149 5584175 
844.669 5714250 5869956 6044699 6225799 6396012 6538608 6640102 6695114 
848.525 6706454 6683842 6637680 6575610 6499726 6407781 6297568 6171216 
852.382 6037543 5911670 5809238 5740908 5707703 5700150 5703272 5701929 
856.239 5688634 5666680 5649359 5652782 5689642 5762900 5862634 5969647 
860.096 6062272 6125747 6156260 6164830 6172325 6205329 6285062 6421232 
863.953 6607636 6823974 7038838 7218904 7338720 7385160 7362580 7289759 
867.810 7195457 7106666 7040994 7001561 6977654 6949742 6898030 6811958 
871.667 6693802 6558353 6426478 6319319 6250707 6224185 6235480 6276590 
875.524 6341374 6427453 6536926 6670417 6822494 6978328 7114075 7201487 
879.381 7219679 7160221 7033416 6866555 6699690 6570867 6507328 6516779 
883.238 6584861 6679401 6760633 6795971 6767061 6677584 6550011 6420526 
887.095 6325908 6291382 6325303 6415919 6536657 6653661 6739398 6777764 
890.952 6770124 6732029 6687106 6658237 6658573 6688284 6734384 6776249 
894.809 6791529 6765749 6696056 6592363 6471778 6354890 6256354 6180727 
898.666 6120706 6061902 5989299 5893230 5774316 5643149 5516484 5408677 
902.523 5327025 5267390 5217890 5163333 5094232 5011165 4927846 4866423 
906.379 4849837 4895407 5006842 5173392 5371237 5571757 5746179 5873314 
910.236 5943983 5960040 5934040 5882953 5827372 5786270 5773712 5798526 
914.093 5862298 5960107 6080786 6211581 6337675 6446386 6529829 6584155 
917.950 6610025 6611606 6594045 6561616 6516543 6458460 6384714 6292189 
921.807 6178778 6045640 5899679 5752860 5620290 5518363 5460211 5451118 
925.664 5488263 5561688 5657012 5757897 5850712 5924434 5971024 5986040 
929.521 5968203 5920739 5852592 5780595 5727646 5717238 5769884 5894036 
933.378 6083406 6315520 6558858 6778403 6943547 7035841 7050355 6994456 
937.235 6882477 6733543 6566158 6396651 6241093 6112775 6021551 5972704 
941.092 5965716 5993800 6045909 6111128 6179887 6246707 6309469 6367767 
944.949 6420425 6465791 6500937 6525557 6542578 6558925 6582775 6619646 
948.806 6668667 6720924 6761340 6773624 6747273 6681991 6588663 6486609 
952.663 6398231 6340870 6323219 6343593 6391607 6452171 6509211 6550650 
956.520 6569084 6563097 6537061 6501811 6471845 6464446 6496296 6577729 
960.377 6709954 6881939 7072380 7252022 7391731 7470570 7480446 7429480 
964.233 7338552 7237703 7155000 7110135 7109158 7143244 7191617 7228068 
968.090 7231909 7191617 7109663 6999979 6882881 6775609 6686466 6612481 
971.947 6542578 6466195 6379435 6291180 6220992 6191415 6215648 6289197 
975.804 6387135 6471778 6502013 6451599 6318680 6129006 5924938 5752626 
979.661 5645968 5614416 5643585 5700955 5752793 5772805 5752021 5697564 
983.518 5627271 5558768 5503598 5464506 5437798 5419211 5408643 5411293 
987.375 5436423 5490612 5573200 5672622 5768339 5837178 5858335 5822469 
991.232 5733119 5607635 5471016 5350707 5270845 5245389 5276848 5356947 
995.089 5469774 5593740 5706965 5792012 5835633 5833383 5789930 5718615 
998.946 5638046 5570313 5535075 5544170 5598540 5686721 5788452 5879662 
1002.803 5941800 5968337 5968001 5962626 5979255 6040600 6153774 6306510 
1006.660 6467977 6601076 6670316 6655982 6559935 6404520 6222505 6046144 
1010.517 5899612 5791844 5720293 5677154 5656777 5660503 5696087 5772671 
1014.374 5894842 6057937 6246370 6436668 6605080 6733307 6810511 6834746 
1018.231 6807852 6732634 6611270 6446184 6243984 6017519 5788352 5583134 
1022.087 5427532 5342019 5334740 5399887 5518900 5666915 5818372 5951306 
1025.945 6052796 6117547 6148027 6153135 6148732 6156126 6199750 6307754 
1029.802 6502820 6797082 7184239 7636685 8105064 8524070 8831778 8975886 
1033.660 8931305 8706545 8344341 7910390 7476469 7107676 6841208 6682900 
1037.517 6608477 6575577 6536355 6452843 6309670 6115463 5899612 5699277 
1041.374 5551385 5479874 5490377 5572058 5704917 5866698 6042246 6227211 
1045.232 6426478 6647807 6893553 7154293 7406089 7616992 7750680 7781308 
1049.089 7701335 7525923 7289793 7041667 6831750 6695821 6652382 6697099 
1052.947 6808492 6953782 7098919 7216580 7288108 7305966 7270587 7187810 
1056.804 7066183 6916108 6749864 6580589 6422443 6288760 6189264 6129611 
1060.661 6109247 6122016 6155723 6195650 6227782 6241160 6231748 6202406 
1064.519 6163049 6124906 6097990 6085557 6081457 6071747 6039626 5972301 
1068.376 5866563 5732615 5590484 5465077 5374424 5323470 5301030 5284126 
1072.234 5245490 5165110 5039992 4885087 4729600 4606316 4542326 4547683 
1076.091 4614353 4717206 4824943 4908778 4950735 4948792 4914877 4869573 
1079.949 4832816 4819548 4833922 4869573 4911660 4944167 4953450 4932504 
1083.806 4882875 4813585 4737807 4668506 4615927 4583645 4569046 4563822 
1087.663 4556757 4536768 4495955 4431815 4348272 4255443 4165544 4091920 
1091.521 4044795 4028140 4038909 4069210 4108778 4148785 4185550 4220177 
1095.378 4257986 4303361 4356337 4410024 4452268 4467031 4441288 4369390 
1099.236 4254038 4105332 3936750 3760546 3582877 3405280 3227088 3050070 
1103.093 2883498 2744665 2654045 2632576 2693051 2836104 3049536 3310315 
1106.951 3589659 3856980 4087438 4263842 4377222 4427062 4418526 4361056 
1110.808 4265414 4144101 4008208 3867310 3729899 3604058 3498629 3425818 
1114.665 3398000 3426553 3517201 3664702 3851297 4047637 4219876 4333948 
1118.523 4367650 4315676 4192642 4028608 3861058 3727994 3655813 3657484 
1122.380 3730467 3860924 4026936 4205323 4376687 4524983 4639838 4716737 
1126.238 4755829 4763098 4749866 4731844 4724710 4741525 4787587 4859018 
1130.095 4942693 5020148 5075190 5097082 5084611 5046395 4996183 4947317 
1133.953 4908644 4881770 4863307 4847625 4832515 4821023 4821492 4842968 
1137.810 4890448 4960891 5042406 5118405 5172185 5194886 5188012 5164473 
1141.667 5142276 5140701 5172889 5242338 5343965 5466653 5597768 5725833 
1145.525 5842853 5944017 6027060 6091673 6138953 6171888 6195280 6215111 
1149.382 6237026 6264993 6300358 6342483 6389859 6442586 6502820 6574130 
1153.240 6659650 6759287 6868104 6976745 7073828 7149375 7197276 7217119 
1157.097 7213143 7192089 7159884 7121048 7078240 7032945 6987251 6943480 
1160.954 6903518 6866656 6829158 6784327 6725433 6649590 6559598 6464950 
1164.812 6378325 6313167 6276759 6269934 6286137 6315621 6347863 6375400 
1168.669 6394768 6405663 6408958 6405024 6392851 6370626 6335793 6286070 
1172.527 6219345 6132904 6024709 5895077 5748362 5595485 5452393 5338195 
1176.384 5268698 5249850 5274903 5325851 5378215 5407569 5400155 5354967 
1180.242 5284059 5205550 5138756 5095339 5077839 5080957 5096110 5116326 
1184.099 5138052 5162562 5192807 5231070 5277150 5327830 5377980 5422801 
1187.956 5458768 5483464 5496014 5495343 5480444 5450615 5407100 5352217 
1191.814 5290062 5225234 5161925 5103217 5053065 5015858 4998462 5009355 
1195.671 5055245 5138689 5255719 5394519 5536887 5663961 5759777 5815954 
1199.529 5833484 5821428 5794027 5764545 5744030 5737382 5744601 5760617 
1203.386 5778950 5792482 5795235 5785363 5763907 5735771 5707468 5685647 
1207.244 5674736 5675106 5682793 5691757 5696087 5692831 5683196 5671145 
1211.101 5661846 5657817 5656978 5653487 5640900 5615188 5578133 5537827 
1214.958 5506584 5496249 5513530 5557191 5619182 5685546 5741948 5778010 
1218.816 5788654 5775928 5745239 5705118 5664129 5628748 5604145 5593740 
1222.673 5598103 5615758 5644055 5677959 5712974 5745843 5774820 5799769 
1226.531 5821462 5839898 5853902 5861190 5859880 5849906 5834525 5819312 
1230.388 5810951 5813637 5828178 5850611 5873112 5886681 5885069 5865589 
1234.245 5830428 5786404 5743056 5710255 5696423 5707233 5744601 5804839 
1238.103 5879427 5956680 6022659 6065699 6080819 6070772 6047623 6028807 
1241.960 6033209 6073998 6155824 6272388 6409765 6549944 6676944 6780557 
1245.818 6857265 6909308 6941224 6957789 6962469 6957890 6947318 6935265 
1249.675 6927488 6929036 6942604 6965870 6992335 7013447 7019744 7005669 
1253.533 6970853 6919812 6861203 6804150 6757739 6727217 6715203 6721260 
1257.390 6742427 6774734 6813641 6854740 6894024 6927925 6954792 6973546 
1261.247 6984792 6989843 6990483 6988092 6984860 6983277 6986005 6996005 
1265.105 7015569 7045102 7082989 7124888 7165813 7200578 7226282 7243633 
1268.962 7257649 7275944 7307247 7359075 7433492 7526699 7628558 7725889 
1272.820 7804923 7856574 7879415 7879955 7870913 7866864 7881203 7919872 
1276.677 7980481 8053654 8127851 8192439 8243022 8282264 8318164 8359574 
1280.535 8412002 8474098 8539379 8597369 8639076 8660574 8663988 8656653 
1284.392 8646241 8638874 8635426 8632992 8626841 8613626 8594902 8576990 
1288.249 8568170 8576517 8606528 8657937 8726491 8806079 8891870 8981400 
1292.107 9075041 9174963 9283710 9402302 9529768 9661810 9792333 9913064 
1295.964 10014569 10088663 10129360 10136550 10116676 10083677 10055904 
1299.339 10050920 10081575 10151203 10251983 10366497 10474897 10558812 
1302.715 10607125 10618669 10600606 10563803 10519161 10474083 10432132 
1306.090 10393883 10359167 10328594 10303112 10283094 10266436 10248319 
1309.465 10222469 10184680 10134854 10078455 10025488 9987784 9973205 
1312.840 9981885 10005075 10027454 10032643 10007924 9948524 9857574 9743873 
1316.698 9617361 9487873 9362114 9244344 9137942 9047197 8977205 8934079 
1320.555 8921396 8939356 8983633 9047028 9120753 9197063 9270610 9337331 
1324.413 9394481 9439109 9467418 9475715 9462407 9430508 9387676 9347420 
1328.270 9325686 9337061 9391773 9492513 9634063 9803956 9986157 10164566 
1332.128 10324963 10459046 10564957 10646920 10712631 10771626 10831173 
1335.503 10894736 10960926 11024067 11077667 11117606 11146094 11173733 
1338.878 11218783 11300256 11431273 11612285 11830961 12067599 12300514 
1342.253 12514319 12698513 12848893 12966312 13054637 13119825 13167877 
1345.629 13204731 13234586 13261162 13288184 13319309 13359660 13413993 
1349.004 13485455 13574398 13677173 13786232 13891316 13982840 14054225 
1352.379 14104195 14138013 14166083 14201789 14256603 14338787 14450787 
1355.754 14591084 14756003 14943209 15152349 15384143 15638836 15914677 
1359.130 16208095 16518405 16853116 17234316 17698292 18293104 19058890 
1362.505 20003810 21090040 22238972 23359938 24375110 25240720 25940142 
1365.880 26478172 26876412 27173594 27426190 27700900 28072090 28599498 
1369.255 29315062 30223758 31310600 32559316 33966424 35551400 37350052 
1372.630 39393716 41675480 44110212 46523600 48698168 50435684 51625416 
1376.006 52246844 52326000 51894924 50973092 49577660 47747840 45567012 
1379.381 43161628 40662940 38188536 35814640 33575272 31481210 29530992 
1382.756 27719406 26035508 24458426 22955020 21483368 20004608 18496602 
1386.131 16968972 15465957 14055046 12796338 11718274 10811131 10044917 
1389.507 9389537 8822986 8332215 7905633 7528519 7180736 6841141 6494614 
1393.364 6141373 5801045 5507557 5291002 5161355 5102077 5081225 5067547 
1397.222 5044115 5009590 4974732 4953216 4954724 4979022 5018573 5063357 
1401.079 5106938 5146534 5181004 5209909 5231841 5247334 5259877 5277821 
1404.936 5311327 5366742 5440415 5520007 5589847 5636234 5654528 5651104 
1408.794 5640664 5640262 5663524 5715526 5791676 5881878 5976466 6070604 
1412.651 6164326 6258034 6348804 6428529 6486239 6514189 6512373 6491150 
1416.509 6470466 6475880 6528854 6640808 6805463 7002403 7208158 7409864 
1420.366 7606876 7804923 8007277 8215332 8430311 8659086 8916390 9221938 
1424.224 9589314 10016807 10484741 10966465 11438996 11894843 12343976 
1427.599 12811387 13330891 13932268 14632616 15429392 16305132 17239348 
1430.974 18216422 19226520 20259144 21300386 22330494 23333086 24307546 
1434.349 25274468 26284802 27413308 28735240 30267986 31939126 33613000 
1437.724 35171968 36575320 37851364 39058148 40255716 41486632 42771904 
1441.100 44111016 45490660 46892560 48298448 49694672 51067668 52402628 
1444.475 53686848 54913240 56088928 57238584 58402324 59621484 60917764 
1447.850 62283280 63679724 65063476 66412724 67737024 69069520 70445720 
1451.225 71883280 73365680 74844736 76260104 77554408 78698760 79691064 
1454.601 80543624 81267272 81858456 82301832 82586824 82752848 82886360 
1457.976 83053496 83259024 83452168 83574808 83581392 83454408 83195736 
1461.351 82813784 82310088 81670144 80858400 79826320 78533136 76974352 
1464.726 75196136 73268752 71239616 69108448 66830560 64364536 61699236 
1468.102 58867908 55921260 52913880 49872844 46763020 43507784 40016440 
1471.477 36264936 32390888 28714566 25593576 23200526 21464186 20172466 
1474.852 19109820 18146594 17235144 16386980 15629079 14972907 14399543 
1478.227 13872158 13352144 12817393 12266736 11719840 11204604 10744861 
1481.603 10347630 10001244 9681934 9366989 9043679 8708845 8365215 8016120 
1485.460 7662888 7304012 6938059 6567772 6202338 5859443 5563165 5338900 
1489.318 5206958 5172587 5221780 5323705 5443670 5552694 5629889 5662014 
1493.175 5641168 5562896 5427800 5243075 5025177 4797972 4590108 4424082 
1497.032 4307979 4234933 4190501 4162099 4140054 4118378 4091151 4053156 
1500.890 4000417 3931768 3848756 3752625 3641914 3508282 3333286 3086776 
1504.747 2727859 2214184 1537453 781805 158442 -115191 -20410 272082 588892 
1509.087 848795 1037073 1173668 1286377 1397819 1516372 1636488 1739803 
1512.944 1806109 1818287 1765087 1642341 1452870 1210082 940300 687146 
1516.802 496631 395137 378854 419812 482766 535278 556113 537501 492253 
1521.141 451387 450890 501508 581726 653364 685056 660864 581228 462034 
1525.481 332096 227359 173822 179225 230607 304774 377826 433510 464257 
1529.820 466910 441337 388504 312964 225403 148034 115056 156918 277553 
1534.160 441437 596789 698795 726142 674735 548051 352689 96331 -205581 
1538.500 -529523 -834473 -1068516 -1191091 -1206885 -1165316 -1118885 
1541.875 -1098461 -1105170 -1119579 -1106987 -1029876 -862648 -605996 
1545.250 -294693 16434 273176 442730 511028 482567 375438 222054 64218 
1549.590 -59007 -123704 -133344 -110256 -81535 -63678 -61293 -67753 -72888 
1553.929 -69112 -58179 -52481 -71066 -133277 -256812 -456247 -739716 
1557.787 -1087091 -1400766 -1507266 -1302399 -894261 -464290 -110057 150786 
1561.644 330604 442432 497295 505322 478055 429795 377892 337501 315616 
1565.984 310145 313163 316512 315219 311008 311836 330869 378323 453477 
1570.323 542842 628808 696903 738854 751367 732316 680177 594002 477027 
1574.663 341580 212175 129341 130368 226132 391854 586006 774602 939271 
1579.003 1075403 1184233 1269229 1334234 1383725 1422717 1456261 1489274 
1582.860 1524452 1561229 1596047 1623251 1637153 1635457 1619692 1595747 
1586.717 1571637 1554113 1547296 1550887 1560531 1570108 1573400 1567314 
1590.575 1551718 1529506 1505067 1483556 1469725 1468362 1483922 1520130 
1594.432 1579419 1660635 1758167 1861844 1958922 2037479 2088881 2110223 
1598.290 2104063 2077328 2039077 1999263 1966876 1947738 1945342 1960319 
1602.147 1991008 2034283 2085319 2137859 2184378 2216881 2227206 2208089 
1606.005 2155274 2069005 1956159 1830299 1711593 1620091 1570274 1567048 
1609.862 1604327 1667187 1735744 1791802 1821348 1817688 1779891 1711061 
1613.719 1614437 1491702 1344903 1178086 1003529 843483 723852 660631 648984 
1618.059 669624 698795 717845 715621 685885 626287 538695 430458 315616 
1622.399 215822 155028 147272 189103 261705 342177 411288 458751 482368 
1626.738 486945 482069 478520 484059 499716 519620 534184 535046 516734 
1631.078 478420 421603 348345 259550 152973 25116 -126189 -294892 -457174 
1635.417 -572476 -604176 -547956 -434368 -304527 -187365 -93527 -22265 34096 
1639.757 84930 138290 196396 256201 308189 340851 342310 302353 213336 70614 
1644.579 -125990 -369386 -633160 -866980 -1004356 -994141 -840161 -597757 
1648.436 -334425 -95183 98286 238929 327023 360913 334451 237271 67532 
1652.776 -141161 -307308 -362037 -315487 -218464 -110222 -8482 79992 152841 
1657.115 208927 247449 268402 273309 264854 246089 220065 190065 160696 
1661.455 138190 130600 144389 179358 226563 270723 295656 289157 245360 
1665.795 162320 41784 -110786 -284461 -463529 -624194 -738261 -781789 
1669.652 -745968 -644608 -506390 -364619 -245188 -162856 -124135 -127282 
1673.509 -162889 -211807 -248699 -248500 -202169 -124798 -48306 -2650 -3412 
1677.849 -54270 -147587 -268667 -397360 -515954 -615492 -700782 -787875 
1681.706 -899022 -1052188 -1250300 -1461664 -1609284 -1609878 -1448389 
1685.082 -1202491 -964520 -785758 -673589 -616584 -595540 -590974 -584587 
1688.939 -563906 -524559 -471605 -416162 -370413 -344920 -345914 -376173 
1692.797 -437513 -532468 -663995 -833713 -1037148 -1254595 -1451856 -1597267 
1696.654 -1680880 -1715997 -1723587 -1717977 -1699561 -1656586 -1570394 
1700.029 -1434254 -1270189 -1120042 -1014372 -961577 -956222 -989050 
1703.404 -1050898 -1131146 -1215212 -1282776 -1313994 -1298204 -1239926 
1706.780 -1155931 -1066235 -986108 -922101 -873462 -834639 -799153 -763135 
1710.637 -727510 -699327 -688840 -706439 -759000 -847404 -965346 -1099948 
1714.495 -1234970 -1356111 -1454432 -1524733 -1561117 -1551939 -1483723 
1717.870 -1352708 -1176023 -985909 -814168 -681859 -596069 -555765 -553813 
1721.727 -578003 -611422 -634947 -631936 -591205 -513009 -407357 -292739 
1725.585 -189551 -118703 -98396 -139803 -247076 -413415 -622672 -847701 
1729.442 -1059393 -1234970 -1366548 -1463249 -1545897 -1636517 -1745567 
1732.817 -1859867 -1934853 -1913708 -1769822 -1542892 -1307553 -1122785 
1736.193 -1009149 -961577 -962040 -986339 -1007761 -1001216 -952486 -866352 
1740.050 -765284 -676070 -619826 -603713 -623499 -668494 -727444 -791810 
1743.907 -857887 -926928 -1001976 -1086067 -1179625 -1279770 -1381081 
1747.283 -1476623 -1558575 -1619286 -1650975 -1644637 -1590434 -1481411 
1750.658 -1317496 -1111515 -887482 -675508 -498943 -372498 -299958 -276945 
1754.515 -294494 -339491 -397989 -453500 -493714 -514862 -522937 -529722 
1758.373 -546566 -579558 -627370 -681628 -727973 -750665 -736607 -682389 
1762.230 -597492 -500201 -408847 -336809 -291382 -275024 -289263 -334160 
1766.088 -409012 -510527 -630116 -755792 -874024 -975727 -1058104 -1123644 
1769.945 -1175560 -1212403 -1226446 -1205960 -1143109 -1045312 -934930 
1773.320 -838739 -772726 -737268 -721622 -711533 -695522 -669983 -640968 
1777.178 -622208 -628991 -670611 -745273 -837549 -922167 -970735 -966537 
1781.035 -913075 -833349 -757181 -709251 -702436 -734424 -790355 -847205 
1784.892 -884407 -888805 -859342 -803783 -733828 -658701 -585051 -516285 
1788.750 -455188 -405404 -372399 -362600 -382066 -433276 -511884 -606227 
1792.607 -701940 -786750 -854216 -902362 -929904 -936054 -920977 -888110 
1796.465 -845486 -804676 -779044 -779970 -812745 -874520 -954205 -1035198 
1800.322 -1097998 -1127577 -1116902 -1068251 -990670 -897732 -804345 -723739 
1804.180 -666840 -640009 -643251 -669619 -707564 -743950 -769022 -780631 
1808.037 -785692 -798061 -830472 -887482 -959528 -1024091 -1051857 -1020091 
1811.894 -925275 -785956 -636171 -512512 -445953 -451216 -526313 -652614 
1815.752 -802758 -945675 -1054931 -1116439 -1128502 -1100047 -1044651 
1819.127 -977446 -911818 -857688 -822667 -811390 -824817 -859871 -909967 
1822.984 -963693 -1007695 -1030999 -1027132 -999959 -962669 -934467 -932814 
1826.842 -968851 -1045775 -1158244 -1291233 -1418303 -1506936 -1526351 
1830.217 -1464108 -1332625 -1162739 -988389 -833283 -711268 -625484 -571087 
1834.075 -538988 -518337 -499407 -476305 -448370 -419704 -396400 -384714 
1837.932 -389349 -411694 -451481 -506853 -575951 -657014 -748118 -846279 
1841.789 -947262 -1044519 -1130882 -1199517 -1246369 -1271015 -1276565 
1845.165 -1267447 -1244254 -1205960 -1149256 -1071491 -973149 -859738 
1848.540 -742660 -637362 -558512 -516881 -516186 -552820 -617444 -697176 
1852.397 -778118 -847668 -897104 -924912 -936318 -940716 -949742 -973115 
1856.255 -1014075 -1068152 -1123082 -1162210 -1168720 -1133162 -1056055 
1859.630 -950304 -838409 -746596 -698301 -705016 -763895 -858912 -968652 
1863.487 -1071193 -1150809 -1203680 -1235267 -1258626 -1288458 -1337283 
1866.863 -1409386 -1500200 -1594692 -1672067 -1710749 -1696821 -1626746 
1870.238 -1506374 -1346300 -1158806 -960751 -770312 -607121 -490173 -430330 
1874.095 -428874 -474915 -549974 -630348 -694232 -727940 -724765 -686888 
1877.953 -621117 -537267 -445987 -358329 -285488 -235850 -213463 -215483 
1881.810 -233631 -255156 -267773 -265918 -252639 -240519 -245486 -282276 
1885.668 -355945 -460219 -579359 -694364 -787808 -848892 -878356 -886259 
1889.525 -887614 -895286 -916216 -949510 -990306 -1032024 -1069012 -1095750 
1893.382 -1106161 -1093602 -1053939 -989976 -913901 -848032 -818004 -841914 
1897.240 -925408 -1056055 -1204936 -1331766 -1399478 -1382799 -1277490 
1900.615 -1100840 -887383 -678981 -512546 -416659 -404709 -475776 -617510 
1904.473 -811290 -1035032 -1262756 -1468268 -1625030 -1710386 -1710650 
1907.848 -1623907 -1462325 -1247723 -1012257 -789264 -606823 -484944 -432349 
1911.705 -447708 -523268 -649206 -813242 -1002406 -1205299 -1410674 -1609052 
1915.563 -1792822 -1951709 -2070605 -2131904 -2117132 -2017840 -1843932 
1918.938 -1622950 -1388149 -1173016 -1000422 -882059 -819029 -802295 -814035 
1922.795 -831960 -836292 -815325 -767831 -700517 -623664 -547856 -481667 
1926.653 -429602 -394645 -377001 -376206 -392990 -428245 -483851 -561259 
1930.510 -660124 -778217 -911587 -1053840 -1198459 -1339331 -1471670 
1933.885 -1593768 -1705600 -1808132 -1901865 -1984033 -2049170 -2091314 
1937.261 -2106614 -2095370 -2064043 -2023083 -1983571 -1953886 -1938053 
1940.636 -1933962 -1937525 -1941978 -1939735 -1926804 -1898467 -1850464 
1944.011 -1778962 -1680318 -1553259 -1402715 -1240124 -1080580 -943658 
1947.386 -847040 -801501 -810728 -868171 -959726 -1065442 -1163730 -1231567 
1951.244 -1247822 -1196411 -1067624 -865062 -605731 -322307 -58709 139649 
1955.101 230873 190595 16964 -263236 -605102 -953312 -1255983 -1478869 
1958.959 -1608359 -1653352 -1637342 -1593735 -1553854 -1537940 -1555141 
1962.334 -1604860 -1679856 -1769954 -1866103 -1956360 -2027404 -2065889 
1965.709 -2056458 -1987002 -1854391 -1664805 -1433693 -1181739 -929177 
1969.084 -690395 -480012 -317076 -227074 -243731 -395605 -686259 -1086992 
1972.942 -1531468 -1929707 -2185216 -2224973 -2019027 -1594494 -1026471 
1976.317 -413051 156056 630965 1001570 1285081 1499814 1648361 1707169 
1980.174 1637984 1401376 979784 386017 -326446 -1077704 -1772462 -2323724 
1984.032 -2678726 -2822015 -2773094 -2573567 -2280087 -1954084 -1650546 
1987.407 -1416751 -1280298 -1242767 -1281884 -1358192 -1420384 -1415892 
1990.782 -1310526 -1094263 -789627 -443835 -117444 137494 289223 330405 
1994.640 276459 154896 -1590 -165572 -320884 -458962 -577605 -677261 -754965 
1998.979 -802658 -813341 -784766 -724963 -659264 -623664 -657047 -789627 
2002.837 -1027297 -1345739 -1692795 -2006956 -2224973 -2304905 -2237599 
2006.212 -2046103 -1774079 -1465561 -1152528 -845849 -544812 -251580 16898 
2010.069 225303 326725 283156 76148 -282938 -753972 -1276830 -1791040 
2013.927 -2251839 -2635059 -2944162 -3196115 -3414523 -3620400 -3828479 
2017.302 -4045453 -4274065 -4507507 -4725781 -4898408 -4977817 -4912955 
2020.677 -4665798 -4225963 -3620696 -2916188 -2200744 -1555075 -1042370 
2024.053 -690097 -486433 -391004 -349622 -313103 -252672 -170871 -94421 
2027.910 -70304 -143115 -337570 -643350 -1014769 -1369025 -1612122 -1664475 
2031.767 -1476557 -1054336 -461444 187910 770187 1176691 1341081 1253611 
2035.625 953151 517364 35918 -404113 -741105 -946072 -1019628 -987728 
2039.482 -888209 -765615 -656551 -581212 -538293 -511354 -475875 -412124 
2043.340 -320552 -223332 -157424 -160835 -258169 -445490 -694166 -955957 
2047.197 -1183127 -1345210 -1436005 -1471571 -1479199 -1478109 -1468004 
2050.572 -1432141 -1345442 -1190066 -966636 -697573 -419506 -175111 6792 
2054.430 116581 167027 183501 196794 228022 283222 354148 423095 470128 
2058.769 478354 438717 351296 224706 74657 -77327 -206839 -290753 -310255 
2063.109 -256348 -133145 42612 244962 446279 619750 745028 809290 806070 
2067.448 734573 602795 427904 234685 56729 -71961 -128905 -109692 -32105 
2071.788 65544 137693 149393 85759 -38036 -183921 -299660 -338001 -270852 
2076.128 -97105 159470 460243 758105 1012396 1196161 1294984 1309308 1250421 
2080.467 1135728 984566 817821 653795 504692 377295 270590 178960 94409 
2084.807 11298 -72159 -152787 -225816 -286415 -333233 -369088 -399346 
2088.664 -430793 -467005 -508938 -553714 -595242 -625021 -633987 -613209 
2092.522 -553350 -450389 -305388 -129137 58850 231502 363267 435301 442863 
2096.861 396530 318700 237404 176176 145515 142367 153702 160895 149924 
2101.201 117244 68592 16832 -25678 -53176 -69377 -84682 -113668 -165638 
2105.541 -240453 -326545 -406232 -459226 -472168 -443835 -386104 -322307 
2109.398 -278236 -275819 -324989 -421260 -546434 -675574 -783476 -851537 
2113.255 -872040 -848164 -790421 -709978 -616121 -513075 -402027 -284495 
2117.113 -166632 -59471 21007 60540 51161 -2915 -86073 -172461 -233134 
2121.452 -247871 -206939 -115191 11000 148598 277917 384458 462366 512355 
2125.792 536406 533918 500910 429331 311870 147272 -57781 -287508 -519727 
2130.132 -728966 -891880 -988753 -1006174 -938137 -785493 -558314 -273435 
2133.989 43142 359056 640821 856099 983138 1012363 948370 805240 602363 
2138.329 360780 99479 -162392 -405768 -611455 -761977 -846412 -864765 
2142.186 -830769 -771635 -721060 -711533 -764193 -882522 -1050898 -1246104 
2146.043 -1438845 -1604299 -1729264 -1805822 -1829546 -1795197 -1694346 
2149.419 -1517007 -1260311 -934004 -560729 -177131 174154 458651 646893 
2153.276 720600 670819 492385 188474 -221312 -693769 -1160426 -1527440 
2157.134 -1691309 -1576799 -1160558 -500036 281233 1022493 1584706 1890096 
2160.991 1929433 1751413 1436148 1071915 727702 446909 248642 132523 91525 
2165.331 111874 179292 273839 371558 448899 487642 479084 429098 354480 
2169.670 272613 198054 133550 68924 -13717 -129468 -283865 -462636 -634351 
2174.010 -759562 -797069 -721358 -530218 -246944 87018 415268 681073 845010 
2178.349 884319 801821 622968 386614 136003 -89386 -260289 -363758 -398154 
2182.689 -373425 -304891 -209091 -105651 -13087 50664 73331 52354 1225 
2187.029 -53773 -79216 -42442 73762 264059 498356 732880 919780 1021198 
2191.368 1022659 930040 765308 556113 329477 102495 -113999 -310355 -476603 
2195.708 -597591 -656948 -646394 -568406 -439466 -285952 -135364 -5864 95834 
2200.047 176143 248941 324072 404589 483097 544202 572602 559928 507047 
2204.387 424621 327819 232762 151183 91525 58816 56861 88178 151382 237768 
2209.209 331135 407308 443526 423195 344797 222585 86654 -30482 -104194 
2213.548 -125228 -102604 -58908 -20045 -1126 -1855 -4340 17097 86157 210518 
2218.370 377693 554653 698762 773573 759101 659603 502436 329377 179292 
2222.710 80987 46423 68029 126524 200474 271651 330339 375836 411587 442631 
2227.531 473677 505920 539060 572436 601235 619418 618721 588461 521478 
2231.871 418518 290550 159470 53779 795 16501 101865 238067 395867 541548 
2236.693 649249 708652 725943 720002 714194 728632 772809 843616 926421 
2241.032 1000872 1044679 1037671 967464 830403 632458 389665 127087 -126189 
2245.372 -342735 -499473 -586341 -606393 -574859 -513902 -445490 -385575 
2249.229 -340683 -307143 -275190 -235022 -179516 -107738 -26506 52189 115918 
2253.569 153371 160133 140411 107069 80523 81583 127286 223612 363533 524961 
2258.391 679381 800526 871171 891424 878542 860348 862871 903444 980648 
2262.730 1077031 1164166 1215930 1218622 1176259 1108554 1043716 1007381 
2266.588 1010769 1049063 1101578 1143103 1151142 1115563 1042088 950993 
2270.445 868017 817589 816394 867785 963313 1085202 1212873 1326823 1414606 
2274.785 1471354 1500778 1512116 1516173 1522258 1535392 1553381 1568279 
2278.642 1569210 1545168 1488177 1397819 1279531 1145794 1010769 888237 
2282.500 787946 714958 668562 645698 642048 655189 684027 730888 797638 
2286.839 885249 991075 1108753 1228557 1339718 1433455 1505367 1556241 
2290.697 1591158 1617231 1640179 1661300 1677166 1679893 1662198 1619692 
2294.554 1554811 1476740 1401177 1343673 1316653 1325327 1366042 1429067 
2298.412 1501011 1570573 1630934 1681290 1724400 1765685 1809037 1854656 
2302.269 1899847 1940017 1971037 1991474 2003724 2012978 2026659 2051261 
2306.126 2090513 2144985 2211320 2284160 2357379 2427611 2493789 2558777 
2309.984 2628009 2706820 2797752 2898641 3000756 3091448 3155692 3181125 
2313.841 3162300 3102961 3015903 2920057 2837004 2785213 2775942 2812692 
2317.699 2891570 3003625 3137669 3284942 3438476 3594169 3749918 3902981 
2321.556 4048808 4181870 4294861 4381707 4438777 4465959 4466294 4446476 
2325.414 4415781 4384150 4362897 4362329 4389104 4445673 4528632 4627380 
2329.271 4726619 4810368 4864915 4883009 4866758 4825646 4775158 4731107 
2333.128 4707258 4711881 4747756 4811574 4897284 4996753 5100770 5201325 
2336.986 5292310 5368822 5428504 5470713 5496618 5507490 5504973 5490377 
2340.843 5464003 5425552 5373552 5306095 5220271 5112504 4979357 4818744 
2344.701 4633140 4430576 4225129 4033758 3873260 3755232 3685119 3663299 
2348.558 3685754 3746242 3837223 3950894 4079477 4215092 4351150 4483066 
2352.416 4608392 4726552 4838780 4947518 5054842 5163903 5279129 5405758 
2356.273 5550177 5717607 5908345 6116169 6326715 6517081 6660895 6736874 
2360.130 6731053 6645283 6495051 6307787 6113178 5938810 5804134 5715257 
2363.988 5668358 5651272 5648351 5644860 5628413 5590149 5523128 5423036 
2367.845 5287379 5116930 4916553 4695636 4467767 4246710 4046400 3876604 
2371.703 3741462 3639842 3565237 3507881 3455074 3394059 3313821 3205257 
2375.560 3064752 2893238 2698185 2490823 2284959 2094974 1930631 1798024 
2379.417 1697888 1626044 1575728 1539615 1511086 1484686 1457923 1429167 
2383.275 1398783 1368568 1340582 1316885 1298474 1283785 1269030 1248294 
2387.132 1215133 1164897 1097559 1018507 937578 868515 823863 811780 834387 
2391.472 886444 958232 1036841 1110281 1169814 1210082 1229753 1230085 
2395.329 1214302 1186990 1153534 1120214 1092609 1075071 1069258 1074041 
2399.187 1085833 1100150 1114102 1127157 1141575 1161342 1189981 1227693 
2403.044 1271223 1314027 1348592 1368967 1373853 1366275 1353611 1344704 
2406.902 1345668 1358929 1381532 1405664 1421055 1418928 1393033 1342178 
2410.759 1270891 1188020 1105232 1034250 985263 964276 973076 1008145 
2414.616 1063180 1129748 1199051 1264411 1321605 1368336 1404733 1431294 
2418.474 1448548 1456227 1453402 1438874 1412246 1374319 1328285 1279830 
2422.331 1236830 1207225 1198187 1212740 1248693 1297543 1345668 1378739 
2426.189 1384124 1355938 1296812 1218289 1135495 1064840 1018142 998979 
2430.046 1003097 1020600 1039929 1051388 1050890 1039564 1022858 1008046 
2433.904 1001536 1007614 1028205 1062549 1108255 1162172 1218954 1272885 
2437.761 1317583 1346565 1355240 1342078 1308377 1258828 1200214 1141442 
2441.618 1089985 1053580 1037140 1042553 1067929 1106594 1148651 1181708 
2445.476 1195396 1184067 1149083 1098987 1048000 1011533 1000739 1020367 
2449.333 1066734 1130578 1199583 1262417 1312266 1346133 1364247 1368502 
2453.191 1361090 1344139 1320641 1295449 1274048 1261819 1262484 1275045 
2457.048 1294752 1314924 1329714 1337225 1340283 1345435 1359129 1384556 
2460.906 1418462 1452105 1475676 1480530 1464672 1433621 1397819 1368336 
2464.763 1352714 1351850 1360624 1370563 1373820 1367372 1354143 1341679 
2468.620 1338522 1351883 1384822 1435416 1497686 1563823 1625246 1673041 
2472.478 1700383 1701281 1672609 1615236 1534062 1438242 1338256 1245071 
2476.335 1165827 1103339 1056437 1021795 996588 980847 977227 990477 1024718 
2480.675 1080651 1154963 1240153 1326490 1403636 1463408 1500246 1511551 
2484.532 1497819 1461813 1408656 1345003 1277703 1213106 1155262 1105332 
2488.390 1061851 1023157 989049 962615 950528 960158 996522 1058430 1136824 
2492.729 1217226 1283453 1323300 1334068 1323001 1305154 1296978 1310970 
2496.587 1349822 1406196 1464738 1509523 1527844 1515042 1475244 1418728 
2500.444 1357832 1302927 1261553 1236864 1229620 1239755 1265807 1305253 
2504.302 1353212 1402606 1444791 1472651 1482725 1477638 1466234 1460217 
2508.159 1470889 1504469 1558502 1622619 1681423 1719145 1724434 1695061 
2512.016 1637452 1565252 1494395 1438707 1406661 1399681 1412944 1439040 
2515.874 1470157 1499681 1523721 1539615 1545134 1537753 1516106 1480830 
2519.731 1436746 1393498 1364048 1360226 1390240 1454100 1542940 1640811 
2523.589 1730621 1799022 1840680 1859814 1867933 1877883 1898549 1931330 
2527.446 1968607 1998132 2006453 1985217 1933627 1859115 1772838 1687843 
2531.303 1615003 1559599 1523654 1505832 1502973 1511052 1525283 1539448 
2535.161 1546265 1539781 1515774 1475444 1425410 1376512 1341579 1330046 
2539.018 1345933 1386418 1443162 1504835 1561694 1608484 1644137 1671112 
2542.876 1693231 1713024 1730987 1747055 1761261 1775899 1795728 1825574 
2546.733 1868466 1922411 1979991 2029689 2058252 2056754 2023331 1964480 
2550.591 1893291 1827071 1781122 1764920 1780890 1824243 1885970 1955527 
2554.448 2023331 2083221 2130700 2163499 2180082 2180116 2164964 2138026 
2558.305 2106527 2078127 2060815 2059217 2072135 2092910 2111788 2119113 
2562.163 2108591 2081390 2044969 2011280 1991641 1993205 2016240 2054656 
2566.020 2097837 2135928 2163532 2180549 2192204 2205758 2227172 2257380 
2569.878 2293053 2326730 2351349 2362109 2359211 2347185 2333993 2327430 
2573.735 2332494 2350483 2378501 2411052 2441639 2465697 2481592 2490757 
2577.593 2497755 2508419 2528415 2560944 2606042 2659445 2713556 2759503 
2581.450 2789281 2798852 2789815 2768173 2744364 2728960 2728793 2745631 
2585.307 2775009 2808156 2834436 2846476 2841707 2823330 2799019 2777210 
2589.165 2765272 2765705 2776609 2792582 2807489 2816527 2817761 2812792 
2593.022 2804721 2796918 2790948 2786747 2782412 2776242 2767606 2757802 
2596.880 2750000 2747966 2754034 2768973 2790782 2816460 2842540 2867321 
2600.737 2890836 2915320 2943874 2978470 3018973 3062850 3104897 3138670 
2604.594 3159129 3163268 3151219 3126656 3096254 3067455 3048035 3043964 
2608.452 3057445 3086876 3126456 3167540 3200484 3217775 3215538 3195744 
2612.309 3165003 3132630 3108101 3097388 3100959 3115042 3132796 3147214 
2616.167 3154323 3154290 3150919 3149484 3154524 3168141 3189703 3216974 
2620.024 3247685 3280868 3316959 3357127 3400905 3445489 3485401 3514428 
2623.882 3527623 3524148 3507614 3485869 3467933 3460518 3466530 3483531 
2627.739 3504808 3521777 3528023 3519773 3498194 3467633 3434935 3406682 
2631.596 3387815 3380936 3386579 3402875 3427555 3457412 3489911 3522846 
2635.454 3555082 3586485 3617589 3648964 3680908 3713223 3744637 3772979 
2639.311 3796142 3812421 3820476 3820710 3813691 3801156 3785012 3767565 
2643.169 3751288 3738822 3732105 3732773 3741061 3756134 3775720 3797546 
2647.026 3819039 3838962 3856445 3871522 3883992 3893520 3899070 3899638 
2650.884 3894724 3884961 3872792 3861660 3855141 3856478 3867276 3887235 
2654.741 3914349 3945678 3978045 4008543 4035062 4056734 4073223 4084996 
2658.598 4092856 4097305 4099278 4099011 4097004 4093358 4088977 4085297 
2662.456 4084160 4087137 4095566 4108878 4124600 4139451 4149454 4152029 
2666.313 4147179 4137244 4126807 4120586 4121656 4130319 4143967 4157984 
2670.171 4168020 4171365 4168789 4163370 4159791 4162534 4173841 4193278 
2674.028 4218036 4244401 4268393 4287533 4300349 4306942 4307912 4304064 
2677.885 4296601 4286830 4276992 4269229 4265682 4267891 4275687 4287633 
2681.743 4300985 4312229 4318454 4317717 4309251 4293924 4273579 4250491 
2685.600 4227471 4206962 4190568 4179194 4172670 4169592 4168020 4165913 
2689.458 4161697 4154873 4146276 4136842 4128078 4120820 4115200 4110885 
2693.315 4107574 4105366 4104931 4107039 4111721 4118077 4123830 4125971 
2697.173 4121689 4110183 4092421 4071517 4052119 4038206 4032086 4033859 
2701.030 4041484 4051650 4061316 4068641 4073357 4076835 4081083 4088074 
2704.887 4099211 4114966 4135404 4160092 4188293 4219609 4252599 4285659 
2708.745 4316646 4343218 4363165 4375917 4381874 4383247 4383816 4387431 
2712.602 4398108 4418860 4450627 4492306 4541020 4592184 4640675 4682305 
2716.460 4714125 4735931 4749565 4758743 4767788 4780485 4798710 4822531 
2720.317 4849703 4876844 4900903 4919502 4931566 4937866 4940011 4940045 
2724.175 4939944 4941017 4944033 4949228 4956366 4964711 4973325 4980597 
2728.032 4984452 4982709 4973291 4954992 4927712 4892861 4853154 4811910 
2731.889 4772277 4736433 4705282 4678386 4654674 4633374 4614085 4597609 
2735.747 4585286 4578254 4576479 4578489 4581168 4580699 4573700 4558699 
2739.604 4536768 4511289 4487016 4468905 4459867 4459967 4466127 4473726 
2743.462 4477007 4471584 4455850 4430944 4400852 4370763 4345829 4330033 
2747.319 4324510 4328158 4338064 4350481 4361693 4369625 4373474 4374478 
2751.177 4374176 4374545 4376687 4380469 4384987 4388970 4391280 4392049 
2755.034 4392418 4394058 4398677 4407179 4418894 4431848 4443564 4451598 
2758.891 4454712 4453507 4450159 4447581 4448117 4453272 4462277 4473224 
2762.749 4483468 4490699 4494315 4495721 4497663 4503756 4518018 4542393 
2766.606 4577651 4622658 4674903 4730806 4787286 4841025 4889510 4931231 
2770.464 4965314 4992228 5013311 5031009 5048171 5067380 5090813 5119042 
2774.321 5151530 5186570 5222417 5257597 5291807 5325818 5361005 5399015 
2778.178 5440449 5485175 5532223 5580751 5630259 5681216 5735267 5794094 
2782.036 5859107 5930245 6006331 6084751 6162780 6237496 6307250 6371399 
2785.893 6430278 6484490 6535446 6584155 6632398 6681958 6734553 6791966 
2789.751 6855312 6924492 6997857 7073188 7147287 7217355 7282043 7340844 
2793.608 7395237 7447648 7501549 7560750 7628795 7708586 7801684 7908163 
2797.466 8026179 8152396 8282635 8412812 8539750 8662026 8779334 8892276 
2801.323 9001933 9108436 9211548 9311332 9408431 9504299 9602253 9705787 
2805.180 9817649 9939303 10069808 10206967 10348173 10491903 10638431 
2808.556 10789628 10948252 11116757 11295870 11484718 11680899 11881970 
2811.931 12086269 12293185 12503202 12716595 12933951 13154557 13378112 
2815.306 13605166 13838190 14081948 14342417 14625077 14933469 15267339 
2818.681 15622726 15992155 16367437 16741289 17108844 17469882 17827940 
2822.057 18190370 18565896 18964490 19394630 19862310 20371014 20921028 
2825.432 21510976 22138894 22803930 23507376 24253306 25047374 25896282 
2828.807 26805672 27779556 28820066 29928600 31106812 32358724 33690300 
2832.182 35109956 36627484 38252616 39993948 41858968 43853664 45982716 
2835.558 48249384 50654636 53195764 55866504 58657180 61554472 64545104 
2838.933 67616328 70756800 73957936 77210832 80505896 83832384 87177296 
2842.308 90527280 93870272 97195224 100493496 103756168 106973208 110132696 
2845.683 113219384 116213936 119096520 121842576 124423656 126808016 
2848.576 128955736 130823496 132367744 133545936 134325280 134685584 
2851.469 134620928 134139640 133263392 132025392 130465480 128631872 
2854.363 126576824 124351472 122008640 119596024 117155120 114723208 
2857.256 112330400 110001848 107759040 105618168 103592568 101691888 
2860.149 99922128 98287464 96790080 95431032 94210744 93128000 92180216 
2863.524 91362184 90666104 90080928 89592520 89184640 88837312 88528648 
2866.899 88235632 87933480 87598376 87209784 86749344 86203840 85564112 
2870.274 84823776 83980304 83033600 81987976 80853248 79645928 78390232 
2873.650 77114224 75850352 74630320 73481272 72426928 71483880 70663680 
2877.025 69974408 69420168 69003256 68724128 68581504 68572424 68692768 
2880.400 68936888 69297800 69767136 70335952 70994472 71734384 72549944 
2883.775 73438456 74401304 75441376 76561592 77761272 79034176 80368040 
2887.151 81746728 83153280 84572968 85997728 87424944 88855968 90293728 
2890.526 91738632 93187336 94632976 96066824 97481448 98872288 100238424 
2893.901 101581728 102906104 104215840 105514536 106805768 108092816 
2896.794 109378280 110663624 111948928 113231640 114508448 115777040 
2899.687 117037064 118293056 119551992 120824000 122118400 123442112 
2902.580 124799024 126190168 127615360 129074008 130566256 132091896 
2905.473 133649512 135236432 136848928 138484384 140143280 141829920 
2908.366 143552480 145318944 147135712 149003904 150918640 152869888 
2911.260 154846768 156838272 158835264 160830672 162815936 164779760 
2914.153 166707104 168577920 170369968 172058784 173617552 175018672 
2917.046 176230960 177219616 177950480 178390112 178510736 178293584 
2919.939 177728688 176814144 175554848 173961440 172050304 169844704 
2922.832 167376784 164683680 161808288 158793808 155678560 152496704 
2925.725 149277360 146044336 142820048 139624304 136475168 133386984 
2928.618 130369472 127427864 124563512 121775688 119063000 116425112 
2931.511 113861936 111374336 108963280 106629576 104374152 102198168 
2934.404 100103504 98092312 96166792 94329184 92581976 90927800 89370256 
2937.779 87913840 86563072 85322008 84193552 83178760 82278008 81490472 
2941.155 80815376 80252040 79798800 79452288 79206560 79053344 78982552 
2944.530 78984424 79050080 79173320 79348976 79570944 79829904 80111640 
2947.905 80397272 80664456 80891768 81059976 81154872 81166888 81088248 
2951.280 80911328 80627712 80227488 79702248 79048768 78270712 77379432 
2954.656 76392912 75331608 74213840 73053272 71857240 70626648 69358392 
2958.031 68047488 66690952 65288544 63844660 62366584 60864812 59349268 
2961.406 57828808 56309348 54793992 53284460 51781540 50288268 48808488 
2964.781 47346704 45906728 44489572 43093600 41715452 40352460 39004712 
2968.156 37676752 36377300 35115848 33900716 32736384 31621598 30551288 
2971.532 29518012 28514748 27536428 26581228 25649074 24741610 23861136 
2974.907 23010674 22194020 21416564 20683584 20000168 19368646 18787100 
2978.282 18249974 17748442 17272138 16812542 16363412 15921379 15485322 
2981.657 15055227 14631519 14215038 13807438 13411669 13031897 12673403 
2985.033 12340225 12033941 11753540 11495027 11253363 11023387 10801992 
2988.408 10587535 10379698 10179049 9986055 9801009 9624950 9459799 9308117 
2992.265 9172595 9054674 8952885 8862955 8778050 8691165 8596728 8493187 
2996.123 8382342 8269329 8160465 8060775 7973731 7899762 7837106 7782624 
2999.980 7733174 7686057 7639248 7592309 7545443 7499965 7457390 7418796 
3003.838 7383879 7350852 7316412 7276719 7229449 7174672 7115591 7057932 
3007.695 7007689 6968664 6941190 6921663 6903450 6879717 6845854 6800919 
3011.552 6747509 6690336 6633810 6581733 6535177 6494143 6457989 6426276 
3015.410 6398400 6372609 6346384 6315150 6274876 6223278 6162108 6096578 
3019.267 6035325 5986813 5955606 5940859 5935619 5930010 5913719 5880535 
3023.125 5830394 5769011 5706226 5651138 5610589 5586256 5575012 5570448 
3026.982 5565648 5554573 5533397 5501853 5461386 5415286 5367715 5323034 
3030.840 5284528 5254076 5231673 5215341 5202029 5188515 5172353 5152134 
3034.697 5127457 5098423 5064530 5024908 4977883 4922954 4861028 4795527 
3038.554 4732313 4677650 4637929 4616462 4613884 4627648 4653368 4685822 
3042.412 4719920 4751106 4775527 4789061 4788425 4770971 4736400 4686559 
3046.269 4626141 4562349 4502048 4451765 4415279 4393255 4383514 4381808 
3050.127 4383247 4383247 4378829 4367951 4350983 4329229 4305335 4282379 
3053.984 4262938 4248617 4239583 4234263 4229679 4223155 4213218 4199702 
3057.842 4184513 4170663 4160995 4157215 4158921 4163437 4166816 4164474 
3061.699 4152565 4129651 4096536 4056199 4013726 3974869 3944407 3925349 
3065.556 3917525 3918595 3923443 3926753 3924413 3914215 3896395 3873695 
3069.414 3849726 3827797 3810281 3797914 3790259 3785848 3782973 3779798 
3073.271 3774182 3764456 3748681 3726256 3698385 3667977 3639775 3619026 
3077.129 3609237 3611108 3622668 3638572 3652973 3661227 3661126 3653007 
3080.986 3638572 3619494 3596040 3566306 3528124 3480558 3425217 3367178 
3084.844 3313020 3269418 3239840 3224050 3217641 3213836 3206693 3192273 
3088.701 3169876 3142041 3112072 3083339 3057378 3034588 3014902 2998721 
3092.558 2987444 2983240 2987744 3001123 3021108 3043397 3062417 3073762 
3096.416 3074696 3065353 3048268 3027715 3007996 2992582 2983908 2982006 
3100.273 2985609 2992182 2998621 3001190 2997186 2984708 2963657 2935334 
3104.131 2902477 2868856 2838038 2813359 2797618 2792849 2800053 2819062 
3107.988 2849211 2887301 2929630 2971130 3006261 3030985 3042229 3039927 
3111.845 3025546 3002424 2975133 2947577 2923793 2906747 2898708 2900743 
3115.703 2912818 2933233 2958820 2985609 3009497 3026380 3034655 3034488 
3119.560 3027681 3017805 3008763 3003959 3005961 3015803 3032720 3053908 
3123.418 3075030 3090848 3095619 3085375 3058312 3016471 2965325 2912251 
3127.275 2866354 2834236 2819428 2821163 2835737 2857049 2879329 2898641 
3131.133 2912851 2922425 2928863 2934300 2940138 2947611 2956618 2966559 
3134.990 2976568 2985576 2992048 2994884 2993216 2986576 2975834 2962022 
3138.847 2946910 2932466 2920323 2912084 2909115 2912951 2924260 2943441 
3142.705 2969062 2998521 3027448 3051338 3066755 3071860 3067956 3058079 
3146.562 3046033 3034421 3023978 3012734 2997420 2974366 2942140 2902177 
3150.420 2858816 2817994 2786547 2770007 2770807 2789014 2822196 2865654 
3154.277 2913585 2961055 3003158 3037091 3062350 3079535 3090848 3098223 
3158.135 3102861 3104563 3102160 3094418 3081304 3064986 3049470 3038759 
3161.992 3035656 3039960 3047935 3053340 3050271 3035456 3009798 2978136 
3165.849 2947244 2923793 2911350 2909849 2915453 2924660 2934567 2944408 
3169.707 2956318 2972965 2995852 3024311 3055576 3085108 3109435 3125321 
3173.564 3130861 3124687 3105731 3072494 3025079 2966459 2902778 2845309 
3177.422 2806255 2795650 2818595 2871724 2944508 3021242 3087143 3130660 
3181.279 3147882 3141407 3119480 3092616 3070592 3060214 3064585 3082238 
3185.136 3108468 3135600 3155024 3157728 3137669 3092950 3028249 2953182 
3188.994 2882931 2831868 2810924 2823430 2864720 2923192 2983541 3032820 
3192.851 3062951 3072327 3065219 3048936 3031085 3016003 3005127 2996452 
3196.709 2987277 2975267 2959654 2942407 2927095 2917355 2916220 2924727 
3200.566 2941273 2961322 2978803 2987411 2982707 2963824 2933800 2900476 
3204.424 2872725 2858149 2859750 2875493 2897441 2915186 2920290 2907848 
3208.281 2879696 2842374 2805622 2778010 2763738 2762371 2769240 2778076 
3212.138 2783012 2781311 2773308 2761470 2748832 2738863 2733694 2734528 
3215.996 2742597 2758269 2781344 2810224 2841873 2871324 2893204 2903511 
3219.853 2900143 2884532 2860984 2835203 2813192 2799219 2796084 2803854 
3223.711 2821196 2845642 2873525 2901410 2925294 2941873 2948812 2945843 
3227.568 2934134 2916921 2898074 2880696 2866554 2856115 2847710 2839272 
3231.426 2828833 2815260 2798218 2778277 2756535 2734495 2714256 2698519 
3235.283 2690384 2692384 2705720 2729026 2758336 2787514 2810257 2821896 
3239.140 2821463 2811391 2797318 2784946 2778277 2777243 2778277 2775342 
3242.998 2762871 2738629 2704987 2669147 2640577 2628109 2637043 2667413 
3246.855 2713589 2767172 2819795 2864086 2897207 2919923 2935435 2947010 
3250.713 2957018 2965192 2969195 2965425 2951481 2925994 2891603 2852813 
3254.570 2815026 2783579 2762070 2751300 2750266 2756568 2767006 2778877 
3258.427 2790248 2799252 2804788 2805722 2801920 2793716 2782945 2772374 
3262.285 2764771 2763104 2768573 2780377 2796251 2812392 2825064 2832135 
3266.142 2832902 2829067 2823430 2819495 2819895 2826165 2837438 2851679 
3270.000 2865987 2877027 2882698 2882464 2877394 2870423 2865087 2864386 
3273.857 2869923 2881230 2895806 2909849 2919656 2923159 2919856 2911217 
3277.715 2900309 2890303 2883865 2882931 2888635 2901977 2924026 2955417 
3281.572 2995618 3042229 3090180 3132563 3160965 3170077 3157093 3124053 
3285.429 3078067 3028048 2983441 2950647 2932566 2927929 2932566 2941206 
3289.287 2949879 2957152 2963791 2972631 2987411 3011166 3044832 3087811 
3293.144 3136501 3186632 3232462 3268716 3291251 3297895 3288313 3264710 
3297.002 3230660 3190036 3146780 3103629 3062717 3025713 2994617 2971931 
3300.859 2960788 2963690 2981572 3013067 3054408 3099791 3142675 3178054 
3304.717 3202487 3215171 3217307 3211332 3199616 3184562 3167473 3149918 
3308.574 3133064 3118212 3106732 3098790 3094185 3091982 3090614 3089379 
3312.431 3088078 3087744 3089813 3095386 3104129 3114942 3124687 3130460 
3316.289 3130260 3123686 3112873 3101193 3093217 3092149 3099524 3114107 
3320.146 3133664 3154357 3173014 3188301 3199917 3208929 3216840 3224484 
3324.004 3231127 3235567 3235567 3229625 3217441 3200918 3182827 3167073 
3327.861 3156593 3152855 3154824 3159530 3162600 3159497 3146880 3123485 
3331.719 3090614 3052273 3013568 2980505 2958519 2950813 2958553 2980138 
3335.576 3011933 3048302 3084440 3115543 3138837 3153255 3159063 3157694 
3339.433 3150652 3139738 3126756 3113340 3101626 3093417 3090313 3093350 
3343.291 3102160 3115576 3131829 3148750 3165070 3180390 3195511 3211232 
3347.148 3228590 3247852 3268316 3288146 3305875 3319263 3327510 3329747 
3351.006 3326141 3316993 3303037 3285476 3265779 3246283 3228624 3214437 
3354.863 3204723 3199216 3197046 3196779 3197280 3197747 3197647 3196345 
3358.720 3192840 3185931 3174115 3156826 3135533 3112906 3093450 3080803 
3362.578 3077366 3082805 3094051 3106298 3114842 3117411 3114308 3108768 
3366.435 3105397 3108434 3119681 3138270 3161299 3185297 3207360 3225886 
3370.293 3240541 3251490 3258334 3259836 3254328 3241142 3221113 3197513 
3374.150 3175083 3159129 3152888 3156993 3168875 3184062 3197647 3206826 
3378.008 3210498 3210531 3209430 3209463 3210765 3211866 3210064 3202587 
3381.865 3188401 3168641 3146480 3126355 3112372 3107566 3113273 3129326 
3385.722 3154390 3186832 3224584 3265211 3305541 3341033 3367178 3378999 
3389.580 3373556 3349982 3311016 3263208 3214303 3173748 3148182 3140239 
3393.437 3147114 3161566 3174449 3176318 3162033 3131195 3090047 3049069 
3397.295 3019707 3011566 3028849 3068456 3121717 3177653 3224851 3256064 
3401.152 3269551 3268583 3259569 3249788 3244680 3246015 3252625 3261739 
3405.010 3269484 3274025 3274759 3272022 3266914 3259970 3250956 3240073 
3408.867 3228223 3216840 3208729 3206859 3212768 3226654 3246650 3269384 
3412.724 3291251 3309948 3325006 3336826 3347277 3356927 3365475 3370283 
3416.582 3367979 3355157 3330081 3293288 3247618 3198214 3151153 3111905 
3420.439 3084607 3070692 3069324 3077700 3092049 3108034 3122117 3131862 
3424.297 3135800 3133464 3125521 3113006 3097121 3078701 3059247 3040561 
3428.154 3024478 3013801 3010732 3017071 3032786 3056110 3083639 3111171 
3432.011 3134866 3152654 3164837 3173314 3181292 3192039 3206259 3223550 
3435.869 3241175 3255596 3263342 3262841 3253760 3237670 3217808 3197647 
3439.726 3180924 3171278 3171445 3182760 3204890 3234098 3265111 3290150 
3443.584 3301835 3294456 3266914 3222849 3170911 3123786 3094251 3091348 
3447.441 3117678 3168041 3231728 3295525 3348946 3386011 3406415 3414397 
3451.299 3416434 3418504 3423714 3430694 3433800 3426219 3401406 3356226 
3455.156 3292587 3217741 3141007 3073695 3025312 3001290 3002858 3027581 
3459.013 3069991 3123519 3181425 3237703 3287579 3328078 3356927 3373823 
3462.871 3379834 3376928 3368213 3356893 3345173 3335357 3328111 3323203 
3466.728 3319597 3316859 3313554 3309247 3303605 3296460 3288113 3279433 
3470.586 3272055 3268216 3270553 3281569 3302669 3333587 3371986 3413462 
3474.443 3452636 3484166 3504073 3510587 3504541 3488174 3464393 3435103 
3478.301 3401606 3363739 3321634 3276428 3231361 3191906 3165571 3157728 
3482.158 3171846 3205992 3253360 3303404 3345474 3371419 3377095 3364674 
3486.015 3340399 3314121 3294991 3288981 3297461 3317093 3341434 3363472 
3489.873 3378398 3384475 3382839 3376127 3366877 3355791 3342769 3326241 
3493.730 3305174 3280368 3254762 3232696 3219043 3216640 3225185 3241075 
3497.588 3257633 3267481 3263943 3243245 3204556 3151319 3088879 3025279 
3501.445 2969762 2930464 2914453 2924760 2960588 3016871 3085341 3156927 
3505.302 3221981 3272622 3303104 3310182 3293989 3258067 3209597 3157694 
3509.160 3112606 3082472 3071660 3079502 3102527 3135400 3173114 3212501 
3513.017 3251257 3288146 3321100 3347344 3362870 3364507 3351350 3325707 
3516.875 3293421 3262908 3242243 3235600 3242043 3254628 3263208 3257099 
3520.732 3229792 3180791 3117345 3051205 2995985 2961188 2948211 2950013 
3524.590 2953816 2947110 2921758 2877728 2823230 2772141 2738763 2733394 
3528.447 2759336 2811558 2880196 2954249 3025246 3088612 3143042 3188835 
3532.304 3226153 3253426 3267782 3266580 3249187 3218142 3180624 3145979 
3536.162 3124520 3123686 3145512 3186331 3238772 3293021 3338796 3368246 
3540.019 3374925 3355024 3307611 3234632 3140272 3031085 2914619 2799486 
3543.877 2694051 2606542 2544612 2515451 2525416 2578243 2673447 2802887 
3547.734 2952114 3100425 3225452 3308145 3335023 3302336 3217541 3100425 
3551.592 2978336 2879996 2827266 2826932 2872024 2945142 3028148 3105464 
3555.449 3167306 3209663 3232563 3237436 3226120 3201519 3166939 3127757 
3559.306 3091448 3064853 3053541 3058779 3076165 3096587 3107667 3096954 
3563.164 3052840 2967493 2837638 2667746 2471529 2275500 2119513 2044469 
3567.021 2077195 2213651 2419348 2645244 2849111 3007128 3111304 3167240 
3570.879 3188568 3192440 3194710 3207460 3236535 3280802 3333353 3384208 
3574.736 3423614 3444287 3443619 3423247 3388950 3348713 3310315 3280935 
3578.594 3264644 3262240 3270786 3285810 3301735 3314155 3321267 3321801 
3582.451 3315257 3299197 3269117 3218309 3140306 3030884 2892204 2736629 
3586.308 2589209 2480893 2440239 2476594 2575443 2706287 2839372 2954149 
3590.166 3041061 3098423 3128491 3135300 3123118 3097789 3066788 3038659 
3594.023 3021575 3020274 3033253 3052940 3068323 3070225 3053507 3020308 
3597.881 2979304 2942840 2923025 2929363 2965592 3029116 3113006 3207961 
3601.738 3305775 3398835 3480725 3544859 3583344 3588890 3555082 3479723 
3605.595 3366210 3226354 3079802 2949746 2858449 2817727 2824731 2861851 
3609.453 2905846 2936936 2943307 2923793 2886500 2847210 2824131 2833902 
3613.310 2883865 2967026 3064018 3150886 3206626 3216606 3175717 3087310 
3617.168 2965492 2832202 2716089 2645577 2637510 2692217 2794717 2924660 
3621.025 3063051 3198315 3325707 3442083 3545661 3632391 3695044 3725220 
3624.883 3713691 3652272 3534671 3358496 3128024 2859783 2595175 2399357 
3628.740 2337424 2430343 2635810 2880796 3107166 3288046 3418371 3504607 
3632.597 3558456 3592699 3617322 3638104 3656014 3668377 3672187 3666874 
3636.455 3654811 3641279 3632023 3629851 3633393 3636902 3632758 3614382 
3640.312 3580405 3534905 3487305 3448027 3423347 3412026 3404645 3384208 
3644.170 3331283 3227889 3060014 2821196 2514884 2160768 1793732 1460682 
3648.027 1211644 1086331 1106827 1272087 1557970 1920148 2304545 2664246 
3651.885 2967293 3199049 3358596 3451300 3487673 3482529 3455876 3430527 
3655.742 3427889 3459182 3520507 3596340 3670817 3735781 3792365 3848188 
3659.599 3912276 3991555 4086334 4190134 4290143 4373005 4427865 4449656 
3663.457 4440083 4406275 4357676 4301387 4240420 4173038 4092254 3988345 
3667.314 3851899 3677366 3469637 3248887 3052773 2925894 2894172 2946877 
3671.172 3044031 3142709 3207594 3218609 3167140 3054408 2895739 2728726 
3675.029 2613809 2602108 2699819 2866054 3053441 3233597 3399202 3554013 
3678.886 3702897 3846817 3981857 4100984 4198497 4271873 4322068 4351820 
3682.744 4363466 4357509 4332710 4287131 4219374 4129617 4020481 3895024 
3686.601 3756870 3610306 3460786 3316626 3192206 3105397 3074630 3112005 
3690.459 3215805 3371953 3555182 3738154 3896429 4016803 4097205 4145573 
3694.316 4175045 4199836 4230984 4272542 4321499 4369190 4406174 4424718 
3698.174 4421505 4397472 4356806 4304766 4249387 4200170 4167318 4160158 
3702.031 4182673 4231185 4295330 4361056 4415580 4447749 4450829 4421873 
3705.888 4361157 4271136 4155609 4019177 3866808 3704968 3543323 3394493 
3709.746 3274425 3197981 3173915 3200250 3264043 3348245 3438208 3526520 
3713.603 3611743 3694977 3775419 3849993 3913379 3959788 3984031 3984432 
3717.461 3962798 3925048 3878609 3830270 3785480 3747177 3716966 3696347 
3721.318 3686054 3684384 3686021 3683047 3666005 3629384 3575928 3518136 
3725.176 3476083 3472542 3523213 3627980 3768400 3914550 4037939 4116772 
3729.033 4139586 4104062 4013693 3876202 3701393 3502403 3291786 3080369 
3732.890 2876194 2686783 2522716 2401922 2347018 2376235 2487857 2656612 
3736.748 2843408 3015870 3157294 3263876 3340365 3394260 3433366 3462790 
3740.605 3485401 3501267 3507814 3500633 3474747 3425618 3354222 3271688 
3744.463 3196445 3145245 3120749 3112506 3106599 3092383 3061516 3009531 
3748.320 2935368 2843107 2744064 2655678 2600575 2597408 2655211 2768673 
3752.177 2920057 3085742 3242444 3374224 3471674 3531397 3554447 3544960 
3756.035 3510386 3460452 3408386 3367378 3348913 3360466 3403810 3474613 
3759.892 3562932 3656482 3742699 3811852 3859253 3882655 3882788 3862630 
3763.750 3827463 3784544 3742866 3710282 3690031 3679538 3672120 3660625 
3767.607 3641112 3615284 3590627 3580204 3597944 3650969 3736550 3842806 
3771.465 3953502 4055196 4140054 4205021 4250926 4280472 4296467 4300316 
3775.322 4291247 4266720 4223456 4160259 4080080 3991221 3909200 3853236 
3779.179 3838527 3869282 3934777 4014462 4085297 4130253 4140923 4117140 
3783.037 4066701 4002590 3942501 3901444 3889475 3907963 3951161 4010047 
3786.894 4075497 4141124 4202546 4257183 4303328 4339470 4363667 4375080 
3790.752 4373105 4357810 4329731 4289674 4237141 4171767 4093391 4002657 
3794.609 3903282 3802827 3710750 3636902 3585516 3551841 3523647 3486504 
3798.467 3428123 3342836 3233531 3115976 3020875 2986210 3041462 3182026 
3802.324 3369950 3556351 3708210 3812387 3869683 3889107 3885998 3880582 
3806.181 3894389 3945443 4037805 4157884 4283082 4393020 4475032 4524145 
3810.039 4540719 4528632 4492541 4437907 4369123 4289206 4198932 4099211 
3813.896 3991287 3880816 3779163 3700390 3655413 3642515 3647894 3652639 
3817.754 3641813 3609237 3556685 3494086 3438075 3412593 3437908 3516633 
3821.611 3627312 3738722 3827061 3883658 3912008 3920668 3920668 3922440 
3825.469 3936248 3968916 4021317 4087037 4154538 4211646 4247948 4258488 
3829.326 4242996 4205356 4153334 4096536 4044828 4003928 3974267 3951228 
3833.183 3927355 3895927 3852734 3797312 3731737 3659489 3584881 3512324 
3837.041 3446625 3394160 3362069 3356560 3379834 3428022 3492015 3560594 
3840.898 3624038 3677567 3722313 3764056 3813122 3879445 3967579 4075029 
3844.756 4191739 4303361 4394928 4454410 4474463 4451799 4387464 4284990 
3848.613 4150123 3988345 3803596 3599080 3377162 3143877 2915853 2726759 
3852.470 2629842 2673881 2860451 3125655 3388549 3601485 3757638 3873661 
3856.328 3969853 4061216 4153000 4241624 4316747 4366646 4380737 4354162 
3860.185 4288269 4191572 4076467 3957982 3849659 3761649 3701226 3674325 
3864.043 3684985 3732372 3807574 3893186 3966509 4007272 4001754 3942969 
3867.900 3833179 3687592 3539080 3429826 3396530 3444521 3545628 3658487 
3871.758 3753360 3819340 3861359 3894724 3937921 4003995 4093626 4193847 
3875.615 4286562 4356605 4394125 4396033 4364035 4303695 4224159 4137779 
3879.472 4059978 4003794 3975236 3968883 3971859 3968916 3948988 3908531 
3883.330 3851631 3790794 3744938 3737987 3786984 3890411 4025264 4159423 
3887.187 4266117 4330668 4350012 4328192 4273846 4198966 4120251 4057035 
3891.045 4025297 4033859 4079377 4150156 4231118 4310221 4379632 4435262 
3894.902 4474998 4497127 4499437 4478580 4430710 4353727 4248249 4120451 
3898.760 3982025 3847452 3730601 3639040 3571752 3522044 3482295 3449196 
3902.617 3427254 3427889 3466530 3553344 3687792 3857147 4042454 4225062 
3906.474 4390811 4531846 4644828 4729332 4786347 4818376 4828762 4822229 
3910.332 4805209 4784136 4764539 4749330 4737941 4726150 4707627 4676812 
3914.189 4630561 4569414 4499002 4429003 4371298 4335922 4328727 4349410 
3918.047 4393422 4453674 4522337 4591146 4651090 4693157 4708699 4692119 
3921.904 4641747 4562349 4465457 4367683 4289909 4249755 4255109 4301420 
3925.761 4374043 4454209 4525016 4577015 4606249 4613817 4603436 4578623 
3929.619 4542393 4495989 4441891 4384585 4332676 4298107 4291515 4319223 
3933.476 4379431 4462645 4554782 4640977 4710373 4756934 4780284 4784706 
3937.334 4777001 4762596 4744507 4722030 4692588 4653837 4606282 4554514 
3941.191 4507171 4474630 4464721 4479752 4514068 4557193 4596437 4622256 
3945.049 4629657 4617266 4586994 4542962 4490967 4438242 4394259 4369256 
3948.906 4371934 4406777 4473458 4564626 4668674 4771908 4862335 4931365 
3952.763 4976508 4999601 5006607 5004495 5000004 4997524 4999736 5006875 
3956.621 5018405 5031813 5043613 5049412 5044082 5023266 4985625 4933376 
3960.478 4873627 4816332 4773182 4753115 4759782 4789832 4835229 4885388 
3964.336 4929622 4961158 4977045 4978017 4967795 4950568 4930628 4910722 
3968.193 4892358 4875805 4860861 4846654 4832917 4819850 4808224 4798643 
3972.051 4792009 4788893 4789229 4792344 4798006 4805712 4816700 4832816 
3975.908 4856169 4888706 4930225 4977648 5026215 5070062 5104189 5125948 
3979.765 5136476 5139695 5140935 5145327 5155051 5170207 5188112 5205114 
3983.623 5218359 5226877 5231472 5233451 5234155 5233383 5229527 5219969 
3987.480 5202800 5177751 5146870 5114013 5083605 5060105 5045959 5041199 
3991.338 5044317 5052730 5064028 5076297 5088969 5101776 5114616 5127323 
3995.195 5139997 5152905 5166351 5181406 5198374 5217052 5235563 5250353 
3999.052 5257194 5252667 5235362 5207159 
##END=
