##TITLE=lc_2 Sep 02 12:05:20 2026 (GMT+02:00)
##JCAMP-DX=5.01  $$ Nicolet v. 970
##DATATYPE=INFRARED SPECTRUM
##ORIGIN=Vojna akademija
##OWNER=Nicolet
##LONGDATE=2026/09/02
##TIME=12:05:45
##SPECTROMETER/DATA SYSTEM=Nicolet iS20
##DATA PROCESSING=
Ratio against background
%Transmittance->Absorbance
Truncated
ElementMultiply or ElementDivide
##COMMENTS=
Number of sample scans: 8
Collection length: 11,90 sec
Sample gain: 8,0
Background collected on: Wed Sep 02 11:53:24 2026 (GMT+02:00);
Number of background scans: 8
Background gain: 8,0
Sample spacing:  1,000
Number of scan points: 12415
Resolution points: 8286
Number of FFT points: 65536
Apodization: N-B strong;
Phase correction: Mertz;
Laser frequency: 15798,00 cm-1
Number of rejected sample scans: 0
Number of rejected background scans: 0
Bench serial number: BER2010005;
##RESOLUTION= 4,000
##XUNITS=1/CM
##YUNITS=ABSORBANCE
##FIRSTX=400.156891
##LASTX=4000.123047
##FIRSTY=0.024918
##MAXX=4000.123047
##MINX=400.156891
##MAXY=0.154482
##MINY=-0.000681
##XFACTOR=1.000000
##YFACTOR=1.000000E-009
##NPOINTS=7468
##DELTAX=0.482117
##ZPD=6100
##XYDATA=(X++(Y..Y))
400.157 24918046 23691604 22090920 20121654 17840954 15374086 12866504 
403.532 10461388 8254369 6293331 4601929 3197814 2117182 1416368 1148750 
407.389 1342344 1967276 2920223 4021217 5051390 5827372 6248085 6336533 
411.246 6203347 5998739 5832711 5736039 5653118 5487021 5148747 4614219 
415.103 3942234 3269017 2784946 2698219 3226587 4515608 6541198 8976563 
418.959 11262918 12891659 13694955 13834153 13575047 13101726 12471830 
422.334 11654861 10592016 9263536 7741843 6198305 4853087 3910504 3468334 
426.191 3508516 3913981 4524447 5167457 5700452 6041911 6158916 6067245 
430.048 5812361 5464607 5110760 4854193 4811776 5080119 5717977 6717660 
433.905 7997457 9392890 10677991 11626988 12056084 11906863 11256899 
437.280 10284485 9181461 8090076 7084302 6169939 5322497 4524447 3792800 
441.137 3192507 2827066 2798819 3175884 3949590 5035802 6289096 7557716 
444.994 8710839 9649104 10316141 10688994 10781986 10643049 10349089 9984123 
448.851 9609367 9257917 8925658 8585777 8203785 7760327 7263276 6750100 
452.708 6271145 5870325 5565648 5348795 5196395 5086589 5013176 4985424 
456.565 5020685 5126015 5282784 5448468 5580416 5666042 5735267 5849704 
460.421 6077056 6456374 6987823 7617667 8255382 8794549 9158855 9319897 
464.278 9294576 9119670 8828497 8434704 7937588 7337878 6662981 5971461 
468.135 5350103 4882004 4620113 4571926 4698951 4933476 5196965 5430517 
471.992 5607065 5732883 5830562 5920101 6004652 6072116 6107163 6103198 
475.849 6064859 6005592 5939717 5874389 5809675 5746179 5692261 5671279 
479.706 5714485 5851853 6092513 6416457 6771571 7095719 7341652 7497200 
483.563 7590893 7678300 7812918 8012779 8249708 8457136 8563912 8520793 
487.420 8323129 8008526 7644947 7304012 7036212 6864805 6781466 6760263 
491.277 6771100 6791798 6802905 6780826 6695081 6505007 6176896 5701123 
495.134 5106235 4462679 3872759 3454006 3292520 3425250 3823384 4411429 
498.991 5085684 5746683 6322176 6769720 7083730 7287434 7422975 7529868 
502.848 7632673 7734523 7820340 7865279 7844664 7744204 7559975 7300507 
506.705 6982166 6626409 6253396 5882651 5535276 5235597 5015758 4911559 
510.562 4949295 5134296 5436792 5794094 6119933 6332902 6384075 6268960 
514.419 6030723 5745642 5509806 5405053 5483028 5753129 6185399 6720924 
518.276 7286996 7812850 8225260 8458792 8465380 8218844 7731555 7055339 
522.132 6283213 5523699 4890616 4476471 4326820 4434995 4740688 5152670 
525.989 5564776 5891551 6086733 6143423 6086196 5953153 5784826 5613845 
529.846 5462862 5342891 5252902 5181574 5114415 5044250 4980463 4951305 
533.703 4997021 5157431 5447159 5842618 6276288 6659448 6902609 6947520 
537.560 6788163 6472988 6090496 5735133 5489974 5398310 5461251 5648183 
541.417 5912476 6203044 6471138 6678290 6790384 6783721 6650835 6407781 
545.274 6099502 5793053 5565044 5472156 5531014 5709684 5940994 6142986 
549.131 6244959 6213632 6058273 5827036 5582228 5386568 5281174 5281040 
552.988 5378148 5548868 5759744 5970285 6142684 6242438 6245496 6145674 
556.845 5956680 5712135 5456352 5237877 5094433 5048037 5106704 5268128 
560.702 5525242 5867907 6279280 6729538 7171405 7549017 7803539 7893114 
564.559 7806474 7570157 7241308 6887864 6573525 6333709 6174274 6078366 
568.416 6025716 6005156 6024474 6101518 6251849 6470768 6727755 6966880 
572.273 7126302 7157796 7040387 6788769 6447732 6080416 5745608 5490242 
576.130 5337356 5286574 5321457 5419882 5563433 5738759 5937534 6150413 
579.986 6361278 6546917 6677113 6721025 6656992 6476721 6191549 5832174 
583.843 5449373 5104625 4856169 4749129 4798174 4986597 5268396 5584846 
587.700 5874825 6088312 6199145 6205565 6129611 6007306 5884195 5800910 
591.557 5782509 5833585 5934746 6047521 6123730 6124234 6024977 5826532 
595.414 5553130 5248240 4961494 4733854 4590945 4538811 4567874 4661205 
599.271 4801021 4971548 5156660 5339470 5498833 5612368 5662920 5643450 
603.128 5562393 5441858 5312468 5202096 5125143 5079817 5049982 5014216 
606.985 4955729 4871282 4771339 4675606 4603637 4568945 4573767 4611975 
610.842 4671688 4741123 4811776 4878184 4937632 4988876 5032148 5069659 
614.699 5106570 5150525 5208400 5284428 5377309 5481350 5590585 5703070 
618.556 5824014 5963164 6128401 6316966 6509816 6674118 6766489 6749158 
622.413 6603566 6337608 5987149 5605186 5251359 4970040 4783902 4689171 
626.270 4662210 4668439 4674769 4660736 4619376 4558197 4493076 4444569 
630.127 4430543 4461808 4539413 4655578 4795694 4942257 5082398 5208702 
633.984 5320853 5422197 5514235 5591592 5640597 5641403 5577026 5442328 
637.840 5251091 5035233 4840355 4715331 4694396 4792110 4996551 5275205 
641.697 5579543 5859511 6073796 6192255 6203481 6113582 5947879 5744131 
645.554 5550646 5416527 5376302 5443066 5599983 5803261 5986410 6082969 
649.411 6045472 5858705 5546686 5166552 4795728 4505664 4351351 4355200 
653.268 4504392 4755896 5048875 5323335 5526081 5625861 5614013 5504302 
657.125 5325013 5112135 4901976 4721896 4590108 4513365 4489528 4508075 
660.982 4554246 4610301 4656282 4673731 4648980 4577049 4463784 4326318 
664.839 4190301 4084227 4041383 4095398 4273947 4578623 4956567 5298682 
668.696 5491182 5496383 5354867 5136644 4901306 4692253 4543565 4479886 
672.553 4519190 4664688 4901976 5196462 5501853 5771328 5963701 6056291 
676.410 6047186 5954631 5808432 5641403 5481350 5343629 5236636 5163165 
680.267 5123903 5120115 5150793 5210781 5288821 5368923 5434342 5473196 
684.124 5483296 5473733 5461050 5462325 5489471 5545445 5623881 5712236 
687.981 5796747 5868444 5923795 5964474 5996690 6028404 6068656 6128132 
691.838 6219749 6355361 6545168 6793010 7093935 7435311 7798648 8165192 
695.694 8518428 8849192 9152460 9425869 9666654 9870014 10032168 10153916 
699.551 10243943 10318075 10392865 10480735 10581932 10684681 10768060 
702.926 10813406 10812931 10776483 10728389 10703292 10732499 10834026 
706.301 11009454 11245746 11522926 11821904 12133048 12456758 12801696 
709.676 13178738 13596243 14057784 14562369 15106204 15684968 16295258 
713.051 16933070 17594146 18274752 18974044 19696202 20452730 21261204 
716.425 22138578 23096416 24133284 25232572 26359118 27464346 28493130 
719.800 29385218 30085954 30552606 30758766 30703216 30410716 29931830 
723.175 29327326 28663524 27997306 27366724 26793194 26281282 25824576 
726.550 25411772 25029544 24666728 24311644 23954612 23589018 23212726 
729.925 22829598 22449668 22085306 21746642 21439956 21164828 20916334 
733.300 20687998 20475618 20278480 20098888 19940286 19804182 19690134 
736.674 19595806 19519066 19458074 19412302 19378244 19348206 19309198 
740.049 19244356 19139770 18989102 18799246 18587546 18378612 18195448 
743.424 18051804 17950614 17886320 17850482 17837536 17848930 17889566 
746.799 17962804 18062376 18167704 18244204 18253844 18162902 17952928 
750.174 17627926 17211460 16740944 16256422 15796319 15387783 15045417 
753.548 14772356 14562918 14405949 14288242 14197988 14124903 14062542 
756.923 14008059 13961556 13924844 13898637 13881327 13868498 13854506 
760.298 13835145 13810175 13785206 13770636 13777066 13811440 13872501 
763.673 13949239 14021235 14064869 14060419 13995911 13871714 13700118 
767.048 13502032 13300415 13116000 12961772 12840020 12744300 12662350 
770.423 12581712 12493448 12396681 12298230 12211422 12149846 12122724 
773.797 12131242 12166747 12211695 12244446 12248127 12212615 12139624 
777.172 12041197 11935709 11839848 11763822 11707108 11659763 11605717 
780.547 11529868 11424776 11293931 11152349 11020465 10920355 10866946 
783.922 10863038 10898134 10951276 10995656 11003745 10954877 10836438 
787.297 10647056 10395546 10100499 9788536 9489634 9237236 9060967 8981299 
791.154 9004808 9119941 9299451 9502470 9687626 9818903 9873506 9847644 
795.010 9754073 9617903 9466064 9325110 9213477 9142511 9120177 9154118 
798.867 9252502 9425158 9678275 10009822 10404064 10831682 11248535 11606432 
802.724 11865284 12001785 12017182 11938604 11812269 11689374 11615689 
806.099 11620793 11709253 11864365 12053427 12241651 12398420 12506544 
809.474 12563566 12580278 12573150 12559542 12552856 12560428 12584133 
812.849 12622745 12674119 12735360 12801422 12865787 12917498 12942621 
816.224 12927021 12857596 12727035 12536487 12297411 12029241 11759533 
819.598 11519592 11336714 11230207 11203142 11238538 11298964 11335285 
822.973 11301311 11163976 10919438 10595072 10246284 9936320 9722525 9637383 
826.830 9679800 9819140 10006737 10195671 10349157 10450765 10502562 
830.205 10516377 10503749 10470654 10415874 10335380 10228610 10101855 
833.580 9967645 9841814 9736723 9657743 9604489 9574240 9566788 9587687 
837.437 9646326 9749837 9897098 10073707 10251305 10394290 10472928 10470009 
841.294 10389335 10253476 10097344 9955270 9850931 9793621 9776676 9784843 
845.151 9801110 9816666 9831917 9857778 9907437 9992735 10116743 10271457 
849.008 10438343 10594936 10718778 10793501 10813304 10782665 10714668 
852.382 10625460 10529888 10437867 10352449 10272882 10196824 10125188 
855.757 10063195 10018537 9999176 10007517 10038611 10080286 10115116 
859.132 10128648 10112674 10069503 10009789 9949575 9902250 9873675 9860727 
862.989 9852864 9837205 9804601 9754445 9695758 9645480 9621732 9640364 
866.846 9709447 9828291 9988292 10176709 10379290 10581899 10771762 10937106 
870.703 11065770 11148236 11178323 11156225 11088748 10990525 10879516 
874.078 10772781 10682983 10614221 10561155 10512779 10457349 10387775 
877.452 10304978 10218296 10142147 10091173 10074352 10092563 10139399 
880.827 10205236 10280244 10359235 10441668 10529141 10621759 10715959 
884.202 10802400 10869391 10906764 10910366 10884442 10842859 10803521 
887.577 10783446 10795538 10844319 10926098 11030219 11142252 11245644 
890.952 11322906 11358719 11339707 11257035 11109211 10903808 10656530 
894.327 10389505 10127630 9890759 9693047 9540063 9429730 9354530 9303953 
898.183 9266887 9233175 9195201 9150024 9100215 9054471 9025038 9025072 
902.040 9062388 9135033 9229384 9324636 9396919 9429086 9417912 9377281 
905.897 9333370 9316207 9350332 9444087 9587112 9751565 9902589 10007483 
909.754 10043595 10005753 9904929 9764883 9612958 9477883 9381548 9335571 
913.611 9340988 9387541 9456176 9522181 9563502 9563435 9516085 9428307 
917.468 9316918 9203020 9105222 9035931 8998550 8990263 9006296 9044288 
921.325 9107218 9201699 9333032 9500031 9691116 9884895 10053022 10169518 
925.182 10219314 10202489 10135939 10047189 9969815 9931675 9949473 10025420 
929.039 10149100 10299448 10453174 10590828 10699386 10774411 10819113 
932.414 10841330 10849415 10849042 10841228 10822510 10787115 10729442 
935.789 10647803 10546183 10434066 10324590 10231934 10167789 10137432 
939.163 10139298 10164736 10199809 10227557 10234512 10212360 10161242 
942.538 10089850 10013891 9950897 9914624 9911437 9937744 9982054 10028472 
946.395 10064043 10084254 10094733 10109282 10144690 10213276 10315870 
949.770 10439293 10558812 10646546 10678025 10642166 10544656 10407221 
953.145 10259787 10132989 10050207 10020062 10036508 10081677 10134142 
956.520 10174165 10190548 10184273 10165651 10150388 10154289 10188072 
959.894 10253544 10344814 10450493 10558812 10660401 10751518 10833109 
963.269 10909040 10983116 11056322 11126717 11191004 11245746 11289714 
966.644 11323722 11349536 11366304 11369501 11350659 11299542 11209738 
970.019 11082493 10929054 10768365 10624068 10514918 10450765 10429857 
973.394 10439971 10463968 10485590 10495671 10494551 10489086 10488984 
976.768 10501136 10525135 10552260 10567435 10555044 10503274 10408442 
980.143 10276173 10119762 9956965 9803923 9672956 9568718 9489905 9429933 
984.000 9381751 9340412 9304765 9276805 9260490 9258560 9270136 9290040 
987.857 9309437 9318611 9309301 9278125 9226643 9161732 9092974 9029233 
991.714 8977645 8941588 8921768 8917405 8928295 8955219 9000174 9065364 
995.571 9150869 9253720 9367497 9482963 9590127 9680917 9750413 9797755 
999.428 9825444 9837849 9838526 9829986 9812159 9783250 9741298 9685491 
1003.285 9618209 9546025 9478764 9427765 9403962 9414153 9459021 9532409 
1007.142 9623121 9715918 9796400 9855405 9890793 9908691 9921268 9944117 
1010.999 9990226 10066823 10173080 10300805 10435831 10562309 10667158 
1014.374 10740446 10777162 10776008 10739087 10671166 10579148 10474185 
1017.748 10369721 10281601 10225590 10212021 10243163 10310848 10399042 
1021.123 10485691 10550766 10581457 10575007 10537934 10483214 10425106 
1024.498 10373386 10330901 10294325 10257005 10213343 10163040 10113386 
1027.873 10080693 10087408 10157308 10314173 10572698 10934354 11380929 
1031.249 11875704 12361225 12768595 13035516 13113371 12984406 12666102 
1034.624 12211150 11692778 11186108 10756274 10438886 10240958 10144318 
1037.999 10118812 10133125 10165482 10208799 10267657 10352007 10467532 
1041.374 10609841 10762489 10899187 10989437 11009963 10949712 10815614 
1044.750 10629704 10426192 10242959 10110300 10047019 10055294 10124103 
1048.125 10233732 10363375 10498251 10628448 10749582 10856923 10943019 
1051.500 10996812 11007993 10971494 10894396 10797305 10709642 10659076 
1054.875 10663389 10721053 10812115 10903400 10964121 10974111 10932587 
1058.251 10857229 10776551 10718540 10700371 10724823 10781883 10855054 
1061.626 10927796 10989029 11034365 11063119 11076375 11073655 11054146 
1065.001 11017372 10964461 10899051 10824447 10742077 10650282 10545979 
1068.376 10427075 10296937 10163583 10040543 9939845 9870388 9833646 9826969 
1072.234 9846085 9889166 9958559 10058006 10185800 10331647 10471978 
1075.609 10576569 10615036 10567164 10430875 10223351 9974663 9715986 
1078.984 9472938 9259881 9080387 8935060 8825995 8760536 8749547 8799486 
1082.842 8907969 9058294 9224714 9375283 9482319 9530749 9517270 9449708 
1086.699 9340785 9205591 9058159 8913853 8791911 8712461 8693835 8745085 
1090.557 8858728 9009206 9156317 9259881 9288550 9234766 9114088 8961814 
1094.414 8815716 8703672 8634885 8598924 8573442 8537588 8485146 8427677 
1098.271 8391631 8406157 8491701 8648168 8853453 9067902 9248880 9362350 
1102.129 9390892 9337264 9220110 9066346 8900629 8741096 8596457 8467475 
1105.986 8352852 8252748 8171708 8117859 8100136 8123834 8188522 8287295 
1109.844 8407508 8534073 8654591 8760164 8848583 8922512 8987252 9046081 
1113.701 9098962 9140041 9160616 9151613 9108910 9035559 8943482 8851492 
1117.558 8778421 8741535 8749176 8800264 8883720 8983260 9081808 9165996 
1121.416 9228572 9269798 9295287 9312890 9330357 9352803 9380396 9409176 
1125.273 9430949 9436671 9416591 9365804 9284116 9178754 9062015 8949198 
1129.131 8854907 8787652 8748398 8730886 8724362 8718851 8709960 8702016 
1132.988 8706613 8738053 8806891 8915511 9055621 9209483 9355884 9477578 
1136.846 9563367 9611569 9626948 9617091 9588263 9544738 9489330 9426411 
1140.703 9365296 9320033 9304495 9330121 9398273 9500031 9616684 9727608 
1144.560 9816666 9877370 9914725 9942219 9976222 10028235 10101787 10191430 
1148.418 10287267 10378442 10459283 10529922 10596667 10666242 10743028 
1151.793 10825873 10907851 10977917 11024407 11038988 11018664 10966601 
1155.168 10890421 10801891 10712766 10632285 10566485 10515733 10476323 
1158.544 10441261 10404878 10364733 10323776 10289134 10270406 10273968 
1161.919 10300363 10342200 10385874 10417096 10424224 10403623 10360491 
1165.294 10306437 10254867 10216261 10196010 10193636 10205304 10226336 
1168.669 10253306 10283434 10313800 10338943 10350853 10340267 10300126 
1172.045 10227964 10128037 10010094 9886386 9766814 9656456 9555305 9460138 
1175.902 9367632 9277177 9192866 9120652 9066684 9033090 9017630 9013638 
1179.759 9013096 9009341 9000072 8987082 8974736 8966618 8963472 8961510 
1183.617 8953967 8932760 8892276 8831507 8754889 8671322 8592199 8528396 
1187.474 8486902 8469976 8474841 8495688 8525152 8557863 8591421 8627145 
1191.332 8668280 8719189 8782174 8856666 8938713 9021689 9098793 9164270 
1195.189 9214628 9249015 9268444 9273657 9265499 9243702 9208401 9161089 
1199.047 9105492 9048009 8996487 8958804 8941047 8945579 8971184 9012352 
1202.904 9060967 9108436 9147384 9172967 9184710 9186503 9184947 9187959 
1206.761 9201835 9228639 9266007 9307270 9344306 9371221 9386525 9394718 
1210.619 9403792 9422652 9455600 9499828 9544670 9575629 9577559 9542638 
1214.476 9472464 9379380 9282255 9200988 9151816 9141631 9168060 9219739 
1218.334 9282085 9339972 9381751 9401524 9399052 9378229 9345490 9308421 
1222.191 9273183 9243938 9221769 9204880 9188873 9168838 9140954 9104850 
1226.048 9063843 9025308 8997637 8988300 9000174 9030756 9072368 9114155 
1229.906 9145692 9160819 9159702 9149347 9140244 9143966 9167823 9211954 
1233.763 9268715 9324568 9364010 9373591 9347082 9287061 9204610 9115203 
1237.621 9037251 8985695 8969831 8991987 9048652 9131717 9230942 9335436 
1241.478 9436468 9526177 9600526 9657608 9698706 9726523 9745025 9757597 
1245.336 9766407 9771761 9773219 9769864 9762680 9754073 9748041 9748041 
1249.193 9756004 9770677 9787961 9803652 9814938 9822359 9829443 9841983 
1253.050 9863168 9892285 9923166 9945778 9950152 9930353 9887607 9830257 
1256.908 9771864 9724829 9698062 9693895 9708938 9736384 9770677 9809481 
1260.765 9853711 9906047 9968595 10040475 10118405 10197978 10275528 
1264.141 10349259 10419200 10485318 10546693 10600606 10644034 10675852 
1267.516 10698299 10717895 10742789 10780932 10835453 10903299 10975810 
1270.891 11042420 11092996 11122604 11132462 11128552 11117606 11104961 
1274.266 11092248 11078176 11060060 11036608 11009590 10983932 10966329 
1277.641 10962557 10975572 11004968 11047076 11095988 11145958 11192841 
1281.017 11234763 11271827 11306582 11341917 11380794 11424538 11471756 
1284.392 11518572 11558791 11585469 11594113 11584073 11561104 11535346 
1287.767 11520511 11528064 11564746 11629778 11715619 11810021 11899814 
1291.142 11975728 12032885 12071857 12097614 12117443 12139215 12170768 
1294.518 12218988 12288652 12382703 12499962 12635673 12780333 12922720 
1297.893 13051974 13160295 13244560 13306189 13349341 13378112 13394617 
1301.268 13398239 13387543 13362052 13325186 13283641 13248044 13228300 
1304.643 13230588 13254774 13294198 13336939 13368920 13378830 13360139 
1308.019 13313193 13243945 13162959 13082193 13011275 12957062 12921355 
1311.394 12901216 12888860 12874456 12848074 12802753 12736964 12655084 
1314.769 12566670 12483116 12414580 12368486 12345748 12342612 12351339 
1318.144 12362929 12369441 12367088 12355941 12339510 12322908 12310808 
1321.520 12307025 12313126 12329726 12355907 12390169 12430230 12473023 
1324.895 12515274 12553300 12583894 12604223 12612000 12606338 12587203 
1328.270 12556609 12518957 12481138 12452052 12441073 12456519 12503849 
1331.645 12583178 12690291 12817598 12955832 13096979 13235678 13369502 
1335.021 13498204 13621988 13741327 13856320 13967613 14077326 14188985 
1338.396 14306323 14431672 14563124 14694203 14815585 14919546 15002403 
1341.771 15066409 15117662 15164735 15215073 15273276 15340240 15412604 
1345.146 15485391 15553452 15613795 15667345 15717639 15770411 15831232 
1348.522 15903816 15989095 16084157 16183538 16280431 16367851 16440833 
1351.897 16497582 16539952 16573375 16605802 16646255 16702963 16782166 
1355.272 16887634 17021070 17182744 17372446 17589868 17833428 18101272 
1358.647 18391194 18703932 19045596 19431394 19887316 20443178 21125276 
1362.023 21939604 22858584 23820742 24750238 25583454 26284310 26847438 
1365.398 27287224 27628084 27898538 28133740 28376354 28672972 29073552 
1368.773 29617608 30326642 31204136 32243044 33438724 34799220 36351432 
1372.148 38132748 40167572 42436384 44838256 47185780 49260000 50870900 
1375.524 51923604 52415412 52390440 51895260 50958264 49600168 47854852 
1378.899 45793904 43528952 41179496 38856596 36635592 34551340 32613926 
1382.274 30818058 29152990 27604108 26151832 24769882 23427392 22095276 
1385.649 20754966 19407554 18078404 16808892 15639385 14593722 13671771 
1389.025 12860838 12146132 11517619 10969490 10497469 10095818 9756716 
1392.400 9472431 9238353 9055181 8924778 8845270 8805471 8784101 8761381 
1396.257 8726694 8683288 8643369 8620622 8620385 8634007 8640563 8618459 
1400.115 8558809 8471056 8377714 8303506 8268856 8281993 8338936 8424399 
1403.972 8518462 8603621 8670612 8719459 8755363 8781565 8798201 8803408 
1407.829 8798472 8789511 8788260 8806113 8849429 8914970 8990567 9060730 
1411.687 9114899 9151749 9179904 9211514 9254465 9308862 9367530 9421671 
1415.544 9467520 9513307 9579388 9695589 9888624 10167211 10506194 10850570 
1419.402 11138887 11339979 11462945 11541539 11612081 11702173 11831404 
1422.777 12011357 12246798 12534644 12861931 13207464 13550092 13877324 
1426.152 14190354 14505495 14850521 15261779 15773298 16405871 17157270 
1429.527 18002346 18901466 19817290 20725738 21617248 22490040 23345814 
1432.903 24186774 25022452 25877714 26799188 27856144 29124784 30647316 
1436.278 32374036 34149908 35784844 37162248 38281312 39220916 40080096 
1439.653 40948192 41884544 42917012 44044860 45247600 46496716 47763448 
1443.028 49028656 50279228 51506468 52706100 53877808 55030116 56181420 
1446.404 57357148 58578036 59847816 61148168 62444812 63709692 64939448 
1449.779 66155432 67393536 68682248 70027272 71399672 72744296 74003904 
1453.154 75135344 76131768 77017912 77837528 78631336 79416760 80164480 
1456.529 80790784 81197048 81343472 81275224 81073432 80792424 80452736 
1459.905 80058768 79616352 79136784 78632208 78103576 77533768 76881720 
1463.280 76087472 75085248 73831296 72327632 70610424 68719736 66670672 
1466.655 64444936 62023648 59410276 56648292 53798404 50931512 48100488 
1470.030 45306736 42516076 39669532 36736148 33767364 30924250 28405644 
1473.406 26317434 24634852 23246420 22030400 20911294 19863038 18897104 
1476.781 18035054 17288100 16646942 16087871 15584533 15117902 14677443 
1480.156 14258897 13857893 13466418 13073417 12672107 12264282 11862833 
1483.531 11485807 11152689 10875337 10654255 10478020 10327474 10183697 
1486.907 10035321 9884353 9745025 9637248 9575053 9558016 9568143 9579084 
1490.764 9565873 9516220 9428645 9305814 9150971 8966584 8756681 8528261 
1494.621 8294219 8075392 7893856 7765994 7692768 7657492 7633246 7597873 
1498.479 7541128 7462682 7367702 7261928 7148802 7030655 6909948 6790688 
1502.336 6676439 6571136 6477226 6394970 6325202 6271952 6247446 6274473 
1506.194 6375602 6539887 6699690 6776014 6736437 6600538 6407882 6196087 
1510.051 5994036 5819211 5679168 5568770 5473968 5377980 5269905 5149451 
1513.909 5027858 4922618 4854126 4836401 4868936 4929052 4979559 4988172 
1517.766 4944703 4863105 4772579 4707895 4699086 4767152 4909147 5088064 
1521.623 5237341 5299923 5263030 5152201 5006707 4860659 4740219 4660368 
1525.481 4624667 4624433 4641043 4652430 4640608 4598145 4525518 4428066 
1529.338 4312263 4185216 4055095 3932403 3834750 3785814 3812922 3934009 
1533.196 4136709 4368018 4556858 4657755 4664119 4598145 4489829 4369290 
1537.053 4261667 4189264 4174544 4237843 4392418 4628753 4906131 5159309 
1540.911 5332392 5403208 5378382 5280336 5136241 4977011 4831074 4718814 
1544.768 4646670 4604842 4574269 4538643 4491704 4438878 4393321 4368922 
1548.625 4375382 4408383 4448753 4467265 4442694 4371767 4269765 4159590 
1552.483 4064393 3998778 3962831 3940194 3904285 3831775 3712488 3553879 
1556.340 3377095 3220879 3142108 3223450 3540350 4057570 4563956 4852283 
1560.198 4904020 4808292 4651493 4484640 4338199 4229278 4168020 4156747 
1564.055 4186554 4235635 4273780 4276289 4233025 4152230 4054193 3968181 
1567.912 3924379 3945410 4037704 4181636 4337060 4462377 4538174 4567305 
1571.770 4564559 4545808 4524346 4512930 4523744 4572160 4673128 4831375 
1575.627 5027489 5212893 5331017 5350137 5281208 5160986 5029132 4913537 
1579.485 4830303 4783198 4766448 4768994 4780083 4793986 4811574 4838077 
1583.342 4878787 4933811 4997323 5058865 5108246 5140902 5158169 5166418 
1587.200 5171816 5177483 5180802 5175940 5157331 5122729 5076096 5025914 
1591.057 4981335 4949697 4934917 4937330 4955595 4988172 5034026 5091852 
1594.914 5157868 5225737 5286406 5331923 5357886 5365031 5357919 5342791 
1598.772 5324778 5306967 5290297 5276378 5268731 5272857 5294691 5336485 
1602.629 5394384 5458299 5514134 5548599 5555882 5538163 5504772 5467023 
1606.487 5434946 5413306 5401195 5394384 5388849 5383347 5379389 5378785 
1610.344 5380664 5379556 5367178 5335042 5279497 5202465 5111733 5018405 
1614.202 4934046 4870276 4834893 4829600 4846252 4867797 4873661 4850306 
1618.059 4795829 4716872 4624064 4528565 4443263 4380368 4350749 4361324 
1621.916 4409589 4478547 4537270 4557260 4524514 4449121 4356137 4274616 
1625.774 4226869 4223155 4261533 4326418 4393857 4437037 4438744 4394694 
1629.631 4313065 4207397 4091686 3976474 3868112 3771308 3691134 3635365 
1633.489 3617723 3657885 3776723 3980587 4241992 4494315 4665425 4723973 
1637.346 4683511 4581067 4453573 4332308 4237810 4179896 4158720 4163470 
1641.203 4176484 4178056 4154037 4099111 4018408 3925683 3843174 3798649 
1645.061 3821913 3937653 4148250 4416618 4663415 4809899 4819180 4702602 
1648.918 4495386 4235100 3954472 3679605 3446124 3306643 3337193 3619394 
1652.776 4148952 4734926 5103955 5168731 5026450 4804003 4579761 4391748 
1656.633 4251695 4155676 4092388 4047035 4006135 3960557 3908631 3855041 
1660.491 3810315 3787051 3795574 3837925 3904687 3973565 4018642 4023291 
1664.348 3983094 3905422 3803396 3692604 3588423 3505376 3458849 3462389 
1668.205 3524182 3640644 3792866 3945778 4061751 4115401 4100081 4026568 
1672.063 3915419 3794204 3692170 3639708 3663566 3773013 3946146 4128145 
1675.920 4260496 4308213 4273880 4182640 4066233 3949322 3845848 3758775 
1679.778 3682111 3606063 3526654 3451067 3401439 3413261 3527021 3768968 
1683.635 4105433 4421873 4579761 4537371 4354932 4119916 3893955 3712020 
1687.493 3591663 3536141 3539080 3583177 3643651 3690198 3695845 3644219 
1691.350 3530228 3361735 3155458 2936769 2734261 2581176 2512585 2553712 
1695.207 2699019 2894139 3057778 3125688 3090180 2986777 2871957 2803254 
1699.065 2830801 2978403 3211466 3433800 3553378 3547599 3449697 3308045 
1702.922 3159964 3033120 2944408 2901043 2899542 2924326 2952214 2962489 
1706.780 2947144 2910216 2863619 2819095 2785246 2763604 2750466 2736462 
1710.637 2712889 2674047 2619842 2556378 2493256 2442005 2411651 2408653 
1714.495 2435708 2494489 2589842 2729827 2921491 3158362 3407952 3616621 
1718.352 3733943 3743635 3663399 3528424 3371853 3219410 3087177 2981672 
1722.209 2903245 2846009 2801553 2761203 2719624 2676148 2632609 2591875 
1726.067 2555745 2524716 2498755 2477127 2458533 2440006 2414517 2372537 
1729.924 2303413 2200030 2063479 1905904 1752711 1641643 1621721 1735312 
1733.782 1982321 2290689 2553111 2704020 2740630 2699252 2622242 2547612 
1737.639 2502887 2505320 2557278 2643277 2732261 2792016 2805455 2775342 
1741.496 2719290 2659012 2613675 2592242 2592375 2602575 2608708 2600708 
1745.354 2576276 2541146 2506486 2483892 2480559 2497122 2528182 2566777 
1749.211 2608108 2652911 2704020 2761270 2815927 2851946 2852880 2811258 
1753.069 2731160 2627676 2521150 2435375 2390661 2399024 2456900 2542813 
1756.926 2623709 2668180 2662712 2613609 2540980 2467997 2417615 2405387 
1760.784 2436674 2503187 2583909 2652578 2686183 2674614 2620142 2534214 
1764.641 2432509 2333360 2255282 2212885 2213884 2253350 2313872 2369105 
1768.498 2397758 2393993 2372137 2359977 2391894 2495655 2676281 2902944 
1772.356 3113740 3250656 3287379 3237804 3135266 3014068 2896740 2793716 
1776.213 2706854 2634576 2576643 2537180 2523249 2541280 2591175 2662479 
1780.071 2733027 2777376 2778343 2734161 2659012 2575476 2507086 2469763 
1783.928 2468563 2496488 2537214 2570910 2581876 2563744 2518117 2452768 
1787.786 2378001 2305445 2246656 2212685 2214117 2258513 2347185 2469163 
1791.643 2601742 2713022 2776676 2783846 2742097 2668446 2579509 2488224 
1795.500 2402089 2325265 2260578 2210254 2176852 2163066 2169959 2196200 
1799.358 2236598 2282927 2325198 2355080 2369105 2369705 2363009 2356846 
1803.215 2357312 2367307 2385863 2408686 2430377 2445138 2449403 2442605 
1807.073 2427578 2409219 2392394 2379866 2370305 2358545 2337557 2302314 
1810.930 2252251 2193536 2135895 2089514 2060316 2048198 2047932 2052193 
1814.787 2054124 2048664 2034216 2010847 1979292 1939584 1891527 1835689 
1818.645 1775899 1720276 1679128 1661233 1671711 1708533 1764355 1828535 
1822.502 1892359 1951067 2004490 2054856 2103364 2146783 2178384 2191971 
1826.360 2186643 2169360 2153143 2152277 2176886 2226007 2284626 2324832 
1830.217 2319835 2259679 2154974 2030055 1909831 1813629 1750282 1720043 
1834.075 1717149 1734214 1765685 1809736 1867933 1941248 2027159 2117515 
1837.932 2199864 2261277 2294053 2296817 2275267 2238496 2198032 2164731 
1841.789 2148681 2158138 2197033 2260678 2332660 2388296 2401289 2357479 
1845.647 2259712 2125373 1976995 1834857 1713190 1616233 1539382 1474014 
1849.504 1412113 1353146 1304888 1280229 1292425 1347894 1441600 1557006 
1853.362 1672343 1768380 1835423 1876186 1902376 1929034 1967209 2021699 
1857.219 2089880 2165197 2239062 2303646 2352315 2377001 2370005 2325232 
1861.077 2241960 2127537 1996700 1867401 1754141 1664526 1596778 1542707 
1864.934 1492333 1441400 1395692 1371859 1391969 1475111 1626177 1828635 
1868.791 2046034 2238130 2379800 2465464 2503920 2506786 2480059 2421880 
1872.649 2327330 2194668 2030721 1854722 1695294 1579918 1529872 1550654 
1876.506 1631299 1747521 1871494 1979957 2057586 2099602 2107892 2088815 
1880.364 2048464 1992440 1925706 1852526 1777296 1704475 1637918 1580450 
1884.221 1534361 1500745 1481062 1475676 1484254 1503804 1529174 1552417 
1888.078 1565219 1561894 1541310 1507960 1469526 1433521 1403603 1379205 
1891.936 1356935 1333968 1309175 1283785 1260324 1240751 1224569 1209883 
1895.793 1194599 1180479 1172206 1178319 1205098 1254575 1319976 1387481 
1899.651 1439871 1462777 1450775 1409853 1355605 1307181 1281891 1288504 
1903.508 1324131 1377443 1432258 1473914 1491502 1481594 1446287 1393265 
1907.366 1332041 1272852 1224436 1192705 1179150 1181077 1191609 1201045 
1911.223 1199683 1179980 1137455 1071716 986525 890196 794850 716683 674868 
1915.563 687379 769955 928380 1153335 1413775 1665358 1862809 1977927 
1919.420 2009849 1979358 1917618 1851927 1800719 1767183 1741599 1707801 
1923.277 1653151 1577557 1493896 1420523 1372823 1356170 1362452 1373056 
1927.135 1366574 1328651 1257233 1164498 1069358 991009 938175 904606 871205 
1931.474 816991 726839 603027 465384 349141 292672 323143 448866 655786 
1935.814 913637 1180213 1415038 1586303 1673074 1670314 1583243 1422352 
1939.672 1201410 938175 658740 398752 204418 118901 167425 345526 619650 
1944.011 936648 1238027 1478502 1630235 1685182 1651721 1546298 1388312 
1947.869 1194233 983371 776792 600406 482931 446246 498323 626021 796808 
1952.208 967563 1098456 1169216 1184632 1171309 1159647 1172571 1210680 
1956.066 1252714 1264677 1221778 1117889 974570 828843 720865 675930 695443 
1960.405 757873 833358 898198 942857 971648 991872 1001669 987289 927583 
1964.745 808095 633255 434438 261075 158774 151216 222949 326559 402599 
1969.084 411753 351495 253085 164707 129507 161061 238431 310577 323044 
1973.424 244697 76480 -148083 -377630 -560365 -664293 -680999 -618403 
1977.281 -492754 -317241 -106744 116647 318733 460741 511260 463228 344001 
1981.621 208032 129076 168287 354513 669923 1057732 1440702 1748918 1943545 
1985.961 2017039 1992273 1903275 1782952 1647031 1495957 1322801 1126659 
1989.818 923565 747451 637502 626253 720732 896670 1104003 1285746 1397487 
1994.158 1415903 1343407 1201045 1018607 823598 634947 463394 312831 186120 
1998.497 88576 27800 14645 56729 157017 311372 509569 736863 979419 1226430 
2003.319 1473914 1719876 1960885 2185511 2373736 2499188 2539047 2484692 
2007.176 2348617 2166629 1985783 1852792 1803747 1850763 1982121 2166896 
2011.034 2370205 2556444 2701053 2790782 2817061 2774875 2661246 2474261 
2014.891 2217980 1907435 1571105 1248660 987323 827880 792194 875554 1051422 
2019.231 1278568 1508592 1700616 1822812 1857850 1803714 1671877 1482226 
2023.088 1257233 1015817 771183 529771 294827 68692 -141923 -322870 -454228 
2027.428 -511718 -474088 -332604 -95349 211115 548880 876317 1158319 1368402 
2031.767 1491668 1521094 1457424 1307846 1089055 821041 533487 258754 30683 
2036.107 -121319 -179714 -141194 -16632 173988 404357 649548 886245 1093008 
2040.447 1253013 1353844 1388844 1357334 1265873 1126725 956306 777025 
2044.304 613512 488172 421006 423626 496764 629472 798269 970818 1111112 
2048.644 1194067 1210215 1171275 1104933 1049462 1039464 1096130 1221346 
2052.501 1394761 1580949 1735678 1822479 1823278 1745192 1619459 1496689 
2056.358 1429998 1457358 1596678 1837120 2144985 2469796 2761937 2981906 
2060.216 3108301 3139872 3088412 2969862 2797285 2578709 2319935 2029922 
2064.073 1728259 1443894 1210414 1058729 1004924 1043849 1150046 1285314 
2067.931 1409088 1490571 1517303 1495625 1446620 1397188 1372125 1386218 
2071.788 1441035 1526248 1624880 1716284 1781555 1808272 1791436 1735511 
2075.646 1652452 1561162 1481062 1428701 1414008 1438541 1494860 1570274 
2079.503 1650224 1722471 1777296 1808072 1809237 1776365 1707202 1604992 
2083.360 1481528 1357134 1260523 1220416 1257499 1378241 1569243 1799056 
2087.218 2024562 2205458 2308276 2316271 2230270 2066442 1849665 1607620 
2091.075 1367139 1150046 974504 855866 805539 829606 926753 1085700 1285646 
2095.415 1499116 1699818 1864373 1979458 2042638 2060948 2047166 2015674 
2099.272 1977062 1937254 1895454 1847502 1789340 1720043 1644004 1570606 
2103.130 1512682 1481029 1481794 1513446 1566516 1626643 1678729 1712292 
2106.987 1723236 1714753 1693298 1666888 1640279 1613573 1584274 1549923 
2110.844 1510155 1470423 1440868 1433821 1460283 1527212 1633860 1773038 
2114.702 1932462 2094674 2241060 2354314 2418382 2422880 2364508 2248188 
2118.559 2086750 1899880 1710462 1538717 1399913 1299670 1234504 1193669 
2122.417 1163701 1132671 1092377 1040461 978489 910715 840661 770419 699625 
2126.756 625723 545496 455765 355773 247250 136467 33433 -47478 -91307 
2131.096 -85245 -22895 92420 246454 415766 572701 692489 757939 765241 
2135.436 724184 656218 586935 542146 538596 579901 654890 740680 803713 
2139.775 810485 736763 573697 334617 53017 -218265 -421690 -506026 -439102 
2144.115 -219192 121353 519753 900754 1185695 1313063 1257433 1034649 702877 
2148.454 344863 54243 -97469 -75008 107069 392517 695576 927749 1030165 
2152.794 983836 814269 575322 333522 138688 14579 -44066 -60564 -55032 
2157.134 -34060 12060 99413 230408 381673 506583 553525 491324 321088 79860 
2161.955 -179151 -399280 -544448 -604639 -587433 -504338 -358230 -136490 
2165.813 176971 589091 1078160 1594716 2063645 2416083 2609908 2645910 
2169.670 2570576 2460832 2396891 2426445 2553411 2734428 2901310 2981973 
2173.528 2932966 2751033 2473162 2155574 1853491 1602798 1413576 1277139 
2177.385 1178419 1112075 1083475 1107591 1198221 1359926 1581481 1837020 
2181.242 2090812 2308309 2463198 2537580 2524783 2424379 2243125 1993106 
2185.100 1698055 1389908 1104236 876317 731818 684060 735900 881696 1112474 
2189.439 1417166 1781322 2180782 2577043 2921457 3156326 3232362 3126189 
2193.297 2849578 2450836 2002925 1587167 1267302 1079920 1031294 1103305 
2197.154 1266338 1491236 1757335 2047865 2344586 2621309 2839072 2958553 
2201.012 2949412 2803554 2542413 2212918 1877717 1592688 1398783 1308743 
2204.869 1310338 1371094 1454033 1528509 1575528 1589129 1574530 1541044 
2208.727 1497321 1448747 1395459 1332838 1253910 1152172 1025648 879604 
2212.584 729760 599477 519388 516634 609066 797539 1065173 1375548 1683918 
2216.924 1949103 2140456 2245557 2271369 2239562 2178517 2115351 2071069 
2220.781 2055189 2066475 2095507 2128936 2152743 2157239 2138692 2099668 
2224.638 2048398 1994703 1947505 1911894 1888066 1871594 1856619 1837685 
2228.496 1811233 1776365 1734846 1688807 1642308 1600968 1573333 1570440 
2232.353 1605092 1685215 1812231 1974965 2151378 2311507 2424346 2467663 
2236.211 2432776 2326830 2167095 1977761 1781921 1597510 1440004 1320774 
2240.068 1252249 1247763 1317251 1462710 1673740 1927237 2188041 2420014 
2243.926 2594875 2697352 2729693 2706054 2649611 2581709 2518817 2470862 
2247.783 2440839 2427744 2428944 2439906 2454534 2466097 2468330 2458566 
2251.640 2441172 2427611 2435241 2479860 2570010 2700986 2854447 3001223 
2255.498 3109869 3157494 3133364 3041996 2899142 2727859 2548779 2379234 
2259.355 2232001 2115950 2038843 2008484 2029323 2101000 2214317 2352715 
2263.213 2493489 2615442 2704020 2754568 2772774 2770540 2760603 2751900 
2267.070 2745798 2740263 2731927 2721524 2715589 2724625 2759169 2823430 
2270.927 2912518 3010665 3097755 3155124 3171879 3150051 3102728 3049970 
2274.785 3009597 2992448 2998621 3019640 3042563 3057979 3063985 3067489 
2278.642 3080269 3114642 3176519 3262641 3359999 3448929 3511388 3533168 
2282.500 3509584 3444621 3350048 3240207 3129359 3028849 2944842 2879596 
2286.357 2831735 2797418 2773041 2755468 2743097 2735862 2734661 2740030 
2290.215 2751500 2766639 2780944 2789448 2788848 2778477 2762104 2745965 
2294.072 2738396 2746065 2772274 2816760 2875993 2945809 3022476 3103962 
2297.929 3189569 3277396 3362570 3437006 3490111 3513292 3503004 3462923 
2301.787 3404946 3346542 3305240 3294490 3320332 3379934 3463691 3557921 
2305.644 3649164 3726089 3780633 3808844 3809847 3786115 3743969 3693373 
2309.502 3647093 3619026 3621632 3661962 3740092 3848255 3972862 4097673 
2313.359 4207196 4290611 4342917 4365508 4363634 4346933 4325515 4308682 
2317.217 4304131 4315609 4342783 4381808 4427363 4474697 4523007 4576580 
2321.074 4643990 4734993 4854394 4998328 5152972 5296133 5402436 5453232 
2324.931 5439207 5364561 5244886 5104759 4971649 4868299 4811977 4808928 
2328.789 4855935 4942056 5052797 5173191 5289492 5391768 5472525 5526383 
2332.646 5550345 5542794 5504135 5437832 5350976 5254076 5160516 5085751 
2336.504 5042640 5041199 5085851 5174331 5299219 5448233 5608240 5764612 
2340.361 5904012 6015705 6091303 6126721 6123024 6086565 6028807 5962693 
2344.219 5900653 5848462 5804100 5757695 5696591 5609213 5491148 5344971 
2348.076 5180467 5010897 4850809 4715431 4616395 4562717 4557829 4600087 
2351.933 4681836 4791071 4914475 5038216 5150290 5242069 5308979 5352787 
2355.791 5380966 5407267 5445481 5506316 5591491 5692831 5793355 5874389 
2359.648 5924299 5942673 5941867 5942404 5965347 6023365 6115430 6228354 
2363.506 6342315 6437307 6500365 6528282 6524986 6497305 6448942 6379536 
2367.363 6284591 6159621 6003879 5822805 5627674 5433101 5252298 5094970 
2371.220 4965951 4864949 4789698 4736936 4703474 4684181 4672023 4656851 
2375.078 4625739 4567305 4473592 4343720 4185216 4011787 3841001 3687592 
2378.935 3562331 3468200 3401273 3353254 3314756 3278832 3241375 3202987 
2382.793 3166405 3135667 3113707 3101393 3097155 3097622 3097555 3091348 
2386.650 3074396 3043030 2996452 2936769 2869823 2803587 2747732 2711122 
2390.508 2699152 2712755 2747599 2795484 2846142 2889836 2920323 2935168 
2394.365 2936035 2927362 2914619 2902511 2894472 2892204 2896507 2907081 
2398.222 2923025 2943074 2964691 2984675 2999021 3004660 3000022 2986176 
2402.080 2966793 2947144 2932165 2925661 2927729 2935601 2945075 2951514 
2405.937 2952114 2947611 2941139 2938103 2943007 2958286 2982506 3011499 
2409.795 3038759 3058012 3065219 3059714 3043497 3021375 2998621 2979704 
2413.652 2967327 2962489 2964157 2969595 2975067 2976401 2968828 2948278 
2417.510 2912184 2861351 2800453 2737762 2684749 2652478 2649177 2678181 
2421.367 2735728 2812758 2896207 2973832 3035856 3077766 3100625 3110036 
2425.224 3113340 3117678 3128625 3148249 3175484 3206926 3237336 3260704 
2429.082 3271554 3266112 3242944 3203956 3153489 3098623 3046667 3004192 
2432.939 2975534 2962022 2962523 2973699 2991581 3011733 3029950 3042796 
2436.797 3047234 3041862 3027081 3006461 2986210 2973866 2977269 2999655 
2440.654 3039960 3090614 3140039 3174850 3185097 3166773 3124353 3068657 
2444.511 3014102 2975067 2960921 2974333 3011566 3063851 3121216 3174382 
2448.369 3217775 3248987 3268383 3277630 3278598 3272856 3261305 3245181 
2452.226 3225986 3205858 3187033 3171312 3159530 3151286 3145078 3138570 
2456.084 3129826 3116711 3098256 3074263 3045666 3014669 2984341 2958653 
2459.941 2941339 2934801 2939438 2952982 2971564 2990013 3004426 3014102 
2463.799 3021375 3031518 3049937 3080069 3120649 3165204 3203021 3223850 
2467.656 3220111 3191372 3143476 3088612 3039993 3007429 2994550 2998154 
2471.513 3009197 3017471 3015136 2999622 2974433 2946410 2923426 2911350 
2475.371 2911751 2922825 2940338 2960421 2980371 2999255 3017471 3034521 
2479.228 3048669 3056544 3054075 3038492 3009698 2971430 2930498 2895739 
2483.086 2875260 2874259 2893671 2929864 2974967 3018973 3052340 3068423 
2486.943 3064652 3043630 3012434 2979671 2953616 2939838 2939471 2949679 
2490.801 2964991 2979570 2989913 2994917 2996252 2997186 3000522 3007429 
2494.658 3017538 3029483 3042196 3055876 3071693 3091081 3114007 3138537 
2498.515 3160030 3172680 3172380 3157294 3130360 3097355 3065820 3041695 
2502.373 3026847 3018039 3008029 2988145 2951080 2895139 2824764 2751067 
2506.230 2687950 2649944 2647477 2683382 2752434 2842407 2938303 3024578 
2510.088 3091515 3136501 3164336 3183928 3205624 3236034 3275827 3319130 
2513.945 3355825 3376628 3375459 3352953 3316158 3276929 3246650 3233431 
2517.802 3239740 3261305 3289749 3314455 3326909 3321934 3298630 3260203 
2521.660 3212501 3162701 3117645 3083439 3064018 3060915 3073095 3097054 
2525.517 3126856 3156526 3180591 3195444 3200918 3198949 3194042 3191071 
2529.375 3193942 3205324 3225586 3253493 3286811 3322702 3358897 3393058 
2533.232 3423647 3449163 3468668 3481661 3488374 3490311 3489677 3489844 
2537.090 3494353 3505676 3524816 3549971 3576429 3597710 3607600 3601886 
2540.947 3580705 3549570 3518737 3499263 3501267 3528691 3578768 3640377 
2544.804 3698285 3737185 3746008 3721477 3668678 3599815 3529460 3470471 
2548.662 3430995 3412326 3410189 3417402 3426987 3434535 3439945 3445422 
2552.519 3455008 3471407 3494854 3522612 3549971 3571952 3584781 3587454 
2556.377 3581006 3568444 3553244 3538011 3524583 3513927 3507346 3506879 
2560.234 3515463 3536608 3572687 3623603 3685954 3753628 3818471 3872057 
2564.092 3908732 3925549 3922607 3902848 3869917 3828098 3780734 3731871 
2567.949 3685252 3645622 3618158 3607199 3615685 3644419 3691200 3752425 
2571.806 3822983 3898434 3973933 4045430 4108009 4156646 4186386 4194048 
2575.664 4179997 4148785 4110016 4076133 4059008 4067972 4105399 4166816 
2579.521 4240554 4311660 4365006 4388368 4375850 4329095 4256715 4171399 
2583.379 4089077 4024427 3988378 3986004 4016803 4073992 4146443 4222118 
2587.236 4290310 4342984 4377055 4393188 4395162 4387899 4376151 4363433 
2591.094 4351686 4341679 4333412 4326585 4321365 4317516 4315575 4316245 
2594.951 4320428 4329597 4345360 4368922 4401221 4442058 4489896 4542426 
2598.808 4596471 4648813 4696674 4738343 4772646 4799380 4818610 4830505 
2602.666 4835463 4833084 4823737 4807454 4785912 4761892 4739247 4722298 
2606.523 4715096 4719283 4734122 4755494 4777771 4794623 4801825 4798475 
2610.381 4787353 4774321 4765343 4765376 4776699 4797738 4825210 4855835 
2614.238 4886829 4917056 4946043 4972688 4994172 5006339 5004361 4985759 
2618.095 4952009 4909683 4868333 4838646 4829231 4842030 4873728 4915480 
2621.953 4956735 4988407 5005501 5008115 5001110 4990921 4984016 4985424 
2625.810 4997088 5018774 5048574 5083571 5120081 5154012 5181506 5199413 
2629.668 5205583 5200452 5186637 5168563 5151598 5139963 5136040 5139628 
2633.525 5148244 5159242 5169838 5179461 5188984 5200821 5217320 5239319 
2637.383 5265612 5292913 5316124 5329440 5329440 5314212 5285904 5248843 
2641.240 5210445 5178053 5158471 5156157 5172788 5207025 5255316 5312334 
2645.097 5372914 5431457 5483296 5524068 5550546 5560715 5554137 5533229 
2648.955 5502826 5470109 5443267 5428773 5430987 5449542 5480176 5514940 
2652.812 5545713 5565178 5569609 5559137 5537626 5511115 5485846 5466754 
2656.670 5456688 5456218 5464305 5479035 5498363 5520108 5542089 5561990 
2660.527 5576825 5584443 5583067 5572831 5555547 5535343 5517222 5505611 
2664.385 5503900 5512289 5529269 5550815 5572831 5592196 5607065 5617974 
2668.242 5626264 5633817 5641537 5649359 5656374 5661443 5664297 5666109 
2672.099 5668727 5674602 5685143 5700586 5718849 5737550 5753767 5765686 
2675.957 5773007 5776734 5778077 5777842 5775458 5769347 5757125 5737181 
2679.814 5709617 5676415 5641269 5608475 5581825 5563232 5552425 5547459 
2683.672 5545042 5541753 5534471 5521786 5503463 5481082 5456923 5434409 
2687.529 5416862 5407133 5407066 5416795 5435080 5458735 5483867 5506181 
2691.386 5521786 5528497 5525410 5513799 5496215 5476384 5457896 5443535 
2695.244 5434712 5430786 5430082 5429679 5427162 5421526 5413239 5404349 
2699.101 5397538 5395089 5397706 5404617 5413810 5423304 5432027 5440482 
2702.959 5450514 5464137 5482424 5504504 5527625 5547928 5562292 5569373 
2706.816 5570078 5567091 5563534 5561520 5561688 5562963 5564138 5564574 
2710.674 5565715 5570146 5581020 5599949 5626097 5655904 5684438 5707300 
2714.531 5722341 5730835 5737080 5746548 5763571 5789829 5823577 5860585 
2718.388 5895380 5924467 5946603 5963096 5977743 5994708 6016746 6044767 
2722.246 6076585 6108407 6135592 6153471 6159218 6151925 6133744 6108507 
2726.103 6082129 6060995 6049874 6052091 6067580 6093957 6126116 6158680 
2729.961 6186743 6206674 6217127 6217732 6209127 6191549 6164797 6128703 
2733.818 6083339 6030723 5974283 5918891 5870325 5832779 5807996 5794866 
2737.676 5788956 5783852 5773174 5752592 5720663 5679806 5635294 5594076 
2741.533 5562292 5543901 5539572 5546418 5559540 5572998 5582429 5585316 
2745.390 5581926 5574576 5566655 5560715 5558298 5559003 5561352 5563332 
2749.248 5563366 5561084 5557291 5553768 5552123 5554271 5561050 5572495 
2753.105 5588303 5607334 5628748 5651708 5675576 5700015 5724456 5748227 
2756.963 5770018 5788520 5801582 5807996 5807122 5800373 5791072 5783886 
2760.820 5783987 5795840 5820924 5857462 5900418 5942639 5976735 5997127 
2764.677 6001360 5991147 5970755 5946502 5924803 5910931 5907874 5916842 
2768.535 5936862 5966053 6001628 6040802 6080886 6120067 6157370 6192759 
2772.392 6226538 6259346 6290676 6319353 6343357 6360673 6370861 6375904 
2776.250 6380209 6389892 6411245 6448606 6502787 6570497 6645687 6720957 
2780.107 6789644 6848142 6895808 6934962 6969102 7002100 7036615 7073828 
2783.965 7113537 7155304 7198152 7241780 7285951 7330700 7376330 7423144 
2787.822 7471682 7522687 7577035 7635505 7698232 7764915 7834374 7905802 
2791.679 7978017 8050582 8123429 8197032 8272031 8348732 8427136 8507175 
2795.537 8588582 8670883 8753707 8836478 8918623 8999666 9079778 9159769 
2799.394 9241467 9326803 9417573 9514289 9615838 9719476 9822021 9920691 
2803.252 10014501 10104161 10192482 10283230 10379528 10483960 10597618 
2806.627 10720985 10854273 10997695 11151398 11314710 11485501 11659967 
2810.002 11833515 12002194 12164327 12321409 12477797 12640279 12814629 
2813.377 13004822 13211665 13432481 13662880 13897918 14134213 14370157 
2816.753 14605818 14842018 15080543 15322974 15571414 15829513 16101487 
2820.128 16392762 16708437 17052082 17424938 17825420 18250252 18695456 
2823.503 19157188 19633486 20123562 20627710 21147608 21686208 22247098 
2826.878 22836966 23464148 24138434 24869904 25667492 26536812 27480194 
2830.254 28496952 29585542 30744648 31975542 33282262 34672192 36153796 
2833.629 37736524 39428800 41237132 43165948 45217152 47390124 49681260 
2837.004 52084876 54592972 57195376 59881968 62641808 65463288 68335328 
2840.379 71245672 74181296 77129976 80079648 83020320 85944664 88846168 
2843.755 91718416 94552432 97334792 100049144 102674952 105190744 107576048 
2847.130 109810784 111873984 113743688 115393000 116791328 117907400 
2850.023 118710496 119177080 119292456 119053584 118467824 117553752 
2852.916 116340000 114861312 113160560 111285280 109281448 107195848 
2855.809 105068256 102931432 100813048 98734472 96714560 94771888 92922840 
2859.184 91183520 89568040 88085848 86742584 85539344 84473304 83537664 
2862.560 82722256 82014912 81399616 80860432 80380808 79946112 79546072 
2865.935 79173040 78822144 78488320 78164032 77836584 77489216 77099464 
2869.310 76644872 76105040 75463800 74713232 73854352 72896952 71858456 
2872.685 70763384 69640192 68517376 67423800 66383808 65417260 64539684 
2876.061 63761608 63090084 62529564 62082128 61747360 61523548 61407620 
2879.436 61396364 61487704 61681440 61979160 62382956 62894040 63510068 
2882.811 64225264 65028988 65908096 66849576 67841512 68874912 69944160 
2886.186 71045280 72175288 73331192 74510288 75710576 76931200 78172248 
2889.562 79433352 80712688 82004744 83300688 84589080 85857968 87098656 
2892.937 88305704 89479032 90621568 91739000 92836872 93920576 94994952 
2896.312 96064016 97131688 98201680 99276336 100357384 101445136 102540072 
2899.687 103643048 104755816 105880704 107018944 108169912 109330888 
2902.580 110497400 111666120 112837264 114015784 115210832 116434776 
2905.473 117699104 119010920 120372392 121780776 123230880 124716400 
2908.366 126233520 127779288 129352320 130951000 132573352 134216144 
2911.260 135875760 137548336 139228864 140910176 142581008 144225568 
2914.153 145824432 147355184 148796256 150126016 151323504 152367184 
2917.046 153232272 153890800 154315504 154481648 154372048 153979168 
2919.939 153304144 152353584 151136080 149660528 147935840 145974544 
2922.832 143796640 141429360 138908240 136273328 133561936 130808664 
2925.725 128041280 125281032 122544896 119845792 117193224 114593552 
2928.618 112048328 109556952 107116680 104726544 102388384 100108384 
2931.511 97895456 95759760 93710192 91751112 89883640 88105048 86410176 
2934.886 84793880 83251360 81779168 80375904 79041496 77778200 76590248 
2938.261 75483200 74463720 73537936 72710408 71983192 71355736 70826184 
2941.637 70391864 70049224 69795496 69625952 69534600 69511968 69546072 
2945.012 69623816 69731840 69859816 70000168 70148360 70301208 70454984 
2948.387 70602592 70734376 70836632 70893032 70886680 70800088 70616200 
2951.762 70322272 69908504 69371848 68716552 67955032 67103988 66182756 
2955.138 65209412 64195952 63148560 62068140 60952496 59800964 58615996 
2958.513 57404036 56174780 54938132 53701280 52467680 51235596 50000716 
2961.888 48757736 47503700 46239048 44968368 43698716 42438868 41195416 
2965.263 39972296 38769096 37583564 36411744 35251520 34103992 32974328 
2968.639 31870910 30803084 29779392 28804878 27879884 27000366 26159256 
2972.014 25347874 24557990 23783326 23020490 22268094 21528036 20803766 
2975.389 20100484 19424186 18781356 18177344 17616196 17099434 16625287 
2978.764 16189350 15784808 15403746 15038659 14682447 14331013 13981745 
2982.140 13634707 13291532 12955355 12629568 12317046 12020247 11740366 
2985.515 11476961 11229322 10996472 10778317 10575278 10388351 10217992 
2988.890 10063467 9922454 9790875 9664079 9538404 9411851 9284895 9160141 
2992.748 9041242 8931205 8831372 8741603 8659897 8584223 8513089 8446494 
2996.605 8384841 8328837 8278312 8231642 8186294 8139600 8089941 8037756 
3000.462 7984598 7933843 7888188 7849455 7817439 7790349 7764915 7737694 
3004.320 7705854 7667677 7623028 7573360 7521608 7471412 7427256 7392911 
3008.177 7370297 7359479 7357087 7357963 7355503 7343977 7320153 7283896 
3012.035 7238209 7188282 7139270 7094541 7054699 7018229 6982267 6943850 
3015.892 6901969 6857500 6812901 6771201 6734451 6703056 6675262 6648177 
3019.750 6618402 6584088 6545067 6503392 6462360 6425772 6396348 6374728 
3023.607 6358790 6344871 6327522 6301938 6265027 6216253 6158277 6095873 
3027.464 6035393 5982244 5939885 5908916 5886580 5868175 5847757 5820790 
3031.322 5786001 5745776 5706058 5674837 5659261 5663491 5686486 5721972 
3035.179 5760382 5790601 5804100 5796780 5770958 5733018 5692361 5657583 
3039.037 5633984 5622102 5618511 5617403 5612402 5599446 5576791 5545546 
3042.894 5507860 5466586 5424545 5383616 5346078 5314614 5292209 5282046 
3046.751 5286507 5305692 5337390 5376605 5416594 5449373 5468096 5467861 
3050.609 5446656 5406160 5351311 5289526 5228990 5177751 5141170 5121422 
3054.466 5116594 5122327 5133425 5144657 5152805 5156895 5157264 5154414 
3058.324 5148177 5137616 5121522 5099898 5074353 5048507 5026685 5011869 
3062.181 5004596 5001780 4998194 4988306 4968197 4937230 4898356 4856404 
3066.039 4815595 4778508 4745009 4712852 4679559 4643823 4606852 4571691 
3069.896 4541891 4520228 4507405 4502048 4501011 4500776 4498533 4492574 
3073.753 4482363 4468838 4453540 4438945 4428032 4423781 4427865 4440618 
3077.611 4459565 4480221 4496759 4503555 4497797 4479150 4450494 4416249 
3081.468 4381071 4348506 4320394 4297706 4281275 4272207 4271638 4279870 
3085.326 4295196 4313802 4330300 4339537 4338433 4327021 4309016 4288905 
3089.183 4269965 4252499 4233694 4208300 4171633 4122492 4064226 4004162 
3093.041 3951161 3913413 3894958 3895492 3910872 3934510 3960657 3984667 
3096.898 4004195 4018575 4027471 4030848 4028976 4022421 4013124 4003527 
3100.755 3996370 3992892 3992391 3992458 3989081 3979048 3960657 3935480 
3104.613 3907127 3880816 3861794 3853436 3857114 3870987 3891180 3912878 
3108.470 3930932 3941465 3942902 3936282 3924011 3911005 3901778 3899839 
3112.328 3906726 3921704 3942167 3965138 3988077 4010148 4031986 4054861 
3116.185 4078909 4103058 4124165 4138080 4141091 4131122 4109012 4078173 
3120.042 4043557 4010181 3981924 3960858 3947249 3939993 3937386 3937586 
3123.900 3938489 3938255 3934911 3926653 3912443 3892517 3868346 3843675 
3127.757 3822615 3809680 3808342 3820811 3846583 3882855 3925182 3966877 
3131.615 4001319 4023659 4030882 4023525 4006068 3984599 3966141 3955943 
3135.472 3956210 3965439 3979550 3993260 4001855 4002992 3996771 3984967 
3139.330 3970589 3955943 3942301 3929595 3917659 3905522 3892952 3879980 
3143.187 3866674 3852734 3837892 3822315 3807106 3794003 3786583 3787251 
3147.044 3797914 3817501 3843040 3869282 3890778 3903717 3907027 3903215 
3150.902 3897264 3895660 3904152 3925784 3960022 4003192 4048440 4088040 
3154.759 4115735 4128078 4124834 4109948 4089277 4069377 4055062 4048306 
3158.617 4047504 4049109 4047771 4039477 4022522 3997808 3968415 3938924 
3162.474 3913212 3894222 3882889 3878843 3880582 3886299 3894155 3902447 
3166.332 3909635 3914884 3916923 3915586 3910905 3904185 3896295 3888639 
3170.189 3881819 3876670 3872893 3870853 3870486 3872291 3876971 3885128 
3174.046 3897599 3914850 3937218 3964436 3995568 4028374 4059678 4086000 
3177.904 4104062 4111521 4108744 4097673 4082488 4067169 4055129 4048139 
3181.761 4045798 4046667 4049176 4052152 4055229 4058440 4061116 4061818 
3185.619 4057771 4045330 4022488 3988378 3945578 3898334 3852166 3812487 
3189.476 3783140 3765359 3759076 3762117 3772144 3786182 3801490 3815696 
3193.333 3827162 3835452 3841135 3846383 3853904 3865839 3882454 3901912 
3197.191 3919832 3931534 3933206 3923811 3905623 3883022 3861593 3845748 
3201.048 3837691 3837658 3843241 3852701 3863900 3875099 3884727 3890277 
3204.906 3888572 3876169 3851063 3814326 3770339 3726256 3690599 3670650 
3208.763 3669413 3685854 3714326 3747311 3777358 3799284 3811050 3813925 
3212.621 3810014 3802928 3795474 3789725 3786817 3787352 3790794 3796142 
3216.478 3801791 3806170 3808042 3807406 3805368 3804498 3807173 3814760 
3220.335 3826560 3840199 3850695 3853637 3845313 3824955 3793936 3755633 
3224.193 3715094 3676832 3644887 3622301 3611041 3611976 3625308 3649699 
3228.050 3682379 3719840 3756736 3787753 3808543 3816666 3812019 3796878 
3231.908 3775486 3752926 3734244 3723048 3721243 3728796 3743601 3762317 
3235.765 3781335 3797379 3808744 3815629 3819641 3823217 3828800 3837190 
3239.623 3847152 3854707 3854740 3842405 3814426 3771642 3718570 3663866 
3243.480 3617990 3590795 3588924 3613380 3659823 3718704 3779530 3832076 
3247.337 3869382 3889307 3893186 3884493 3867042 3844177 3817501 3788254 
3251.195 3757805 3728395 3703632 3687157 3680942 3684417 3694308 3705704 
3255.052 3712922 3713056 3706506 3696347 3687892 3685854 3692972 3709346 
3258.910 3732172 3758140 3784076 3808075 3828967 3846750 3860156 3867577 
3262.767 3867243 3858217 3841502 3820710 3801123 3788020 3785212 3793568 
3266.625 3810448 3831374 3850561 3863766 3868680 3865504 3855476 3841268 
3270.482 3824855 3808175 3792298 3778360 3766662 3757906 3751723 3747679 
3274.339 3745139 3743401 3742632 3743367 3746242 3751522 3758441 3764891 
3278.197 3768267 3766863 3760780 3752692 3746877 3748381 3760780 3784176 
3282.054 3815395 3848088 3874798 3888839 3886599 3868012 3836321 3796410 
3285.912 3754062 3713657 3678803 3651102 3632023 3621332 3618993 3623336 
3289.769 3632859 3644587 3655813 3664835 3670583 3673624 3676063 3679806 
3293.626 3686990 3697951 3712220 3728094 3743568 3757438 3769036 3778093 
3297.484 3784778 3788822 3789257 3784711 3774584 3758842 3739958 3721678 
3301.341 3708645 3704634 3711585 3728128 3749818 3770138 3783508 3786048 
3305.199 3777859 3762518 3746442 3736516 3736850 3749116 3770740 3797045 
3309.056 3822181 3842706 3857448 3867744 3876771 3886633 3897632 3908163 
3312.914 3914082 3911975 3899504 3877406 3848656 3818771 3792833 3774383 
3316.771 3764490 3761683 3763053 3764991 3765493 3763788 3760646 3757705 
3320.628 3755633 3753962 3750787 3743434 3729030 3706974 3678402 3647126 
3324.486 3618291 3597476 3588589 3592899 3608802 3632324 3658754 3683682 
3328.343 3704935 3722614 3738822 3756703 3778828 3806270 3838260 3871756 
3332.201 3903483 3930197 3949422 3960624 3964235 3961761 3954940 3945443 
3336.058 3935245 3925683 3918562 3914683 3914583 3917024 3919832 3919297 
3339.916 3911473 3893520 3864535 3826794 3785146 3746275 3717133 3702596 
3343.773 3704467 3721076 3747812 3777592 3803897 3821780 3828599 3825022 
3347.630 3814593 3802125 3792532 3789223 3793802 3804833 3819039 3831407 
3351.488 3837792 3835151 3822649 3802526 3778762 3756101 3738722 3729030 
3355.345 3727025 3731537 3740326 3751856 3765493 3781937 3801624 3824788 
3359.203 3850461 3876269 3899337 3917625 3930698 3939927 3947717 3956378 
3363.060 3966509 3976909 3984532 3986405 3981322 3970789 3958819 3950961 
3366.917 3952532 3965673 3989381 4019043 4048975 4073223 4088207 4092756 
3370.775 4088241 4077237 4061885 4044159 4024662 4003660 3980754 3956344 
3374.632 3930531 3903951 3877072 3851263 3827763 3808677 3795808 3790727 
3378.490 3793502 3802526 3815095 3827897 3838861 3847753 3856077 3866808 
3382.347 3882220 3902781 3926820 3950225 3968549 3979182 3981423 3977009 
3386.205 3969084 3959520 3948720 3934878 3914817 3886365 3849726 3808309 
3390.062 3767966 3734177 3712254 3703565 3707040 3718837 3734912 3752191 
3393.919 3769436 3786315 3803596 3821212 3838527 3853570 3865070 3872124 
3397.777 3875400 3876537 3878008 3881785 3889007 3899337 3911139 3921938 
3401.634 3928525 3927957 3918495 3899872 3874197 3845547 3819674 3801056 
3405.492 3792800 3794070 3800922 3807273 3806872 3796610 3777023 3753193 
3409.349 3732405 3722213 3726791 3746409 3776322 3809813 3839095 3858317 
3413.207 3865037 3859487 3844110 3822381 3797847 3772912 3750119 3730902 
3417.064 3716665 3708678 3707174 3712488 3724017 3740527 3760613 3782605 
3420.921 3804030 3822449 3834884 3839129 3834014 3820844 3802226 3782739 
3424.779 3767264 3758775 3758207 3764089 3773247 3782004 3787753 3789791 
3428.636 3788588 3784845 3778762 3769938 3756669 3738689 3716865 3693874 
3432.494 3674259 3661995 3659422 3666473 3680106 3696113 3709714 3717935 
3436.351 3719773 3716164 3709614 3703030 3699154 3700524 3709246 3726056 
3440.208 3750753 3780667 3810883 3835251 3847753 3844845 3828165 3804131 
3444.066 3782605 3774550 3787987 3825123 3881618 3946814 4007473 4051483 
3447.923 4072420 4070681 4052587 4025832 3998410 3975236 3957381 3943270 
3451.781 3930097 3914683 3895559 3873394 3849893 3827630 3809145 3795073 
3455.638 3785380 3778093 3771241 3762652 3751856 3740393 3731837 3730400 
3459.496 3740360 3763888 3800053 3844076 3889174 3927522 3952499 3961092 
3463.353 3953335 3932638 3903583 3870151 3834850 3798415 3760646 3721444 
3467.210 3682679 3647627 3620663 3606130 3606497 3622067 3650066 3685820 
3471.068 3724117 3760412 3791663 3816899 3836522 3851731 3862897 3870218 
3474.925 3872558 3868613 3857047 3837624 3811317 3780466 3748180 3718871 
3478.783 3696480 3684384 3684484 3697216 3721177 3753527 3790493 3828499 
3482.640 3864501 3896529 3923510 3945243 3961995 3973933 3981423 3984532 
3486.498 3983697 3978714 3969786 3956511 3938021 3913613 3883524 3848422 
3490.355 3810415 3772277 3737185 3707776 3685820 3671719 3665671 3667174 
3494.212 3676497 3693607 3718035 3747311 3777157 3800989 3811919 3804264 
3498.070 3776088 3730601 3675228 3620196 3577866 3557854 3566440 3604158 
3501.927 3666139 3742031 3818771 3883892 3927522 3944742 3935680 3904987 
3505.785 3860824 3811785 3768200 3737719 3725588 3732673 3756435 3789157 
3509.642 3822582 3849358 3864936 3868881 3862797 3849793 3832811 3814025 
3513.500 3795574 3779731 3769670 3768668 3779698 3803162 3836154 3873127 
3517.357 3905489 3924948 3925850 3906358 3868847 3819407 3765426 3713423 
3521.214 3668177 3631923 3604092 3583545 3567943 3556652 3550305 3551207 
3525.072 3562164 3585449 3621031 3666105 3714192 3756970 3786048 3795708 
3528.929 3785146 3758273 3721778 3681978 3643818 3608502 3574625 3540851 
3532.787 3507280 3477485 3458314 3456511 3477452 3520908 3580371 3643718 
3536.644 3697282 3732105 3744805 3738956 3721477 3699689 3678068 3656950 
3540.501 3634028 3606898 3574357 3538245 3503672 3477385 3466530 3476016 
3544.359 3508883 3564035 3637770 3721711 3804432 3872425 3912176 3915018 
3548.216 3879311 3811785 3725354 3638773 3569881 3532566 3533034 3566507 
3552.074 3619527 3673423 3713056 3730567 3726657 3707642 3681176 3653441 
3555.931 3627078 3603022 3582275 3565905 3556785 3557387 3568077 3585148 
3559.789 3600984 3605729 3590126 3548734 3480993 3391621 3288480 3182426 
3563.646 3086376 3014869 2985909 3018339 3128057 3318863 3574157 3852868 
3567.503 4101620 4279870 4369892 4379666 4330334 4246610 4148952 4051517 
3571.361 3962898 3886633 3823485 3773046 3734310 3706807 3689296 3680674 
3575.218 3679171 3683214 3691334 3703064 3718202 3736717 3757906 3780800 
3579.076 3804098 3826694 3847285 3864301 3873260 3868179 3840366 3782204 
3582.933 3690031 3567943 3428958 3294924 3195611 3161599 3217775 3371753 
3586.791 3604492 3865605 4091485 4233594 4274014 4226702 4121054 3990418 
3590.648 3861694 3755199 3685654 3661594 3686121 3755533 3859153 3978413 
3594.505 4091318 4178658 4227571 4235501 4209371 4162768 4110785 4068440 
3598.363 4047537 4053825 4086903 4139084 4197494 4245104 4265849 4248985 
3602.220 4191070 4095666 3972194 3833413 3692270 3561830 3455509 3385043 
3606.078 3361702 3392456 3476784 3600984 3738989 3859019 3933306 3950392 
3609.935 3917659 3858250 3801323 3774650 3796443 3866574 3963533 4050112 
3613.792 4089779 4059477 3960524 3813958 3653909 3516198 3434301 3434935 
3617.650 3530963 3715495 3957447 4209940 4420568 4551902 4591715 4550094 
3621.507 4450092 4317583 4175079 4036133 3905054 3778594 3648763 3509384 
3625.365 3362203 3221447 3118846 3101460 3222148 3517969 3968181 4468973 
3629.222 4866222 5060944 5052965 4912565 4718747 4534391 4395564 4311928 
3633.080 4273546 4255577 4230716 4179394 4098710 4000852 3906826 3834884 
3636.937 3796410 3791630 3811819 3842572 3870552 3888639 3895192 3892851 
3640.794 3883056 3863097 3825490 3760646 3661093 3527255 3368313 3203121 
3644.652 3053974 2947244 2907047 2951314 3086609 3304773 3586117 3903951 
3648.509 4236605 4565262 4865753 5100200 5224060 5207126 5052127 4789932 
3652.367 4468872 4138481 3849859 3646358 3561897 3615886 3797479 4058173 
3656.224 4319056 4509012 4590845 4571825 4485711 4373340 4266720 4183442 
3660.082 4130052 4103760 4098342 4106570 4123094 4142730 4159423 4165745 
3663.939 4152832 4112725 4041517 3940763 3819407 3692270 3582375 3518269 
3667.796 3531564 3650401 3883423 4198330 4512159 4725279 4766917 4634747 
3671.654 4379264 4076735 3802092 3623102 3605729 3797446 4196724 4705349 
3675.511 5149217 5375867 5359228 5180299 4948088 4742463 4600623 4529435 
3679.369 4511088 4517516 4521501 4508410 4476404 4432384 4383046 4330434 
3683.226 4269430 4192375 4093191 3973933 3845079 3727359 3645088 3623336 
3687.083 3682278 3829669 4053691 4320394 4585922 4809431 4965984 5048305 
3690.941 5061078 5015355 4925634 4809363 4684717 4568108 4473056 4406174 
3694.798 4366947 4347502 4335186 4315776 4279502 4224861 4159891 4098978 
3698.656 4059443 4058105 4106269 4206493 4348239 4508644 4655712 4758207 
3702.513 4799044 4775996 4700626 4589874 4461340 4329129 4203181 4090716 
3706.371 3996471 3923543 3875333 3855843 3871121 3929027 4037638 4201943 
3710.228 4417622 4665090 4907572 5099328 5203135 5200586 5099831 4927511 
3714.085 4718211 4503153 4308548 4151996 4041082 3976206 3950225 3951629 
3717.943 3966910 3985970 4004597 4024060 4049176 4083926 4127777 4174544 
3721.800 4213419 4233862 4231687 4212616 4191338 4186052 4213419 4279401 
3725.658 4375180 4475601 4549391 4569548 4524949 4423513 4287165 4143800 
3729.515 4018107 3929394 3885095 3878643 3889742 3894389 3877339 3846149 
3733.373 3831708 3881317 4034694 4299212 4629958 4941285 5152972 5227347 
3737.230 5180802 5057927 4902612 4740989 4579326 4409789 4220311 4006168 
3741.087 3778695 3565772 3414664 3383240 3522244 3843040 4274583 4665124 
3744.945 4863105 4824775 4610200 4318119 4029310 3801657 3671385 3657017 
3748.802 3763487 3979617 4279033 4619175 4949730 5217957 5378047 5405087 
3752.660 5302103 5097820 4834860 4558565 4307009 4103827 3963165 3887502 
3756.517 3871321 3904854 3978982 4087137 4222754 4373708 4517114 4620347 
3760.375 4654674 4605278 4481057 4308782 4127877 3977142 3886466 3872324 
3764.232 3928993 4027538 4121890 4171968 4158988 4094061 4008342 3942000 
3768.089 3929562 3989214 4116538 4282881 4446075 4566066 4624131 4624433 
3771.947 4585922 4529235 4470780 4418559 4371901 4324678 4270199 4205390 
3775.804 4134200 4068540 4025397 4024461 4078541 4187858 4332041 4475099 
3779.662 4573968 4599551 4548721 4442527 4315575 4202312 4132059 4120586 
3783.519 4167318 4255309 4357208 4443933 4495453 4507506 4488356 4453339 
3787.376 4416116 4386962 4370227 4366044 4372034 4384519 4398476 4406676 
3791.234 4401187 4373942 4321097 4246041 4161095 4086836 4045463 4057102 
3795.091 4128279 4245271 4369424 4452937 4457892 4373875 4221515 4044962 
3798.949 3900608 3843508 3921637 4151528 4494918 4844208 5073079 5108615 
3802.806 4961695 4699755 4403932 4147714 3983596 3950593 4062420 4297003 
3806.664 4587563 4844677 5001177 5035936 4973794 4856672 4722767 4591782 
3810.521 4466629 4338299 4195051 4032387 3861125 3706038 3606898 3606898 
3814.378 3738488 4002356 4348105 4676812 4880496 4906768 4773483 4547951 
3818.236 4306640 4124767 4064661 4165745 4427965 4787286 5127256 5330547 
3822.093 5353492 5228856 5026752 4812446 4635585 4526322 4494449 4530540 
3825.951 4604909 4677047 4706588 4672157 4577417 4447146 4314203 4210675 
3829.808 4159791 4169358 4229312 4313802 4391380 4434359 4430375 4383749 
3833.666 4311192 4233460 4170128 4138114 4148918 4210274 4324879 4488456 
3837.523 4685286 4887634 5061211 5173627 5206354 5162260 5061312 4933108 
3841.380 4808157 4712383 4659664 4650823 4673228 4706354 4727289 4719652 
3845.238 4677884 4605244 4510552 4402392 4286897 4164541 4031818 3883624 
3849.095 3718169 3541185 3372153 3243145 3205090 3320966 3649833 4201877 
3852.953 4886260 5516484 5915096 6035762 5947476 5752155 5524168 5303110 
3856.810 5100971 4914274 4736635 4565162 4403329 4260730 4147948 4072119 
3860.667 4035464 4033892 4061918 4117274 4204453 4330434 4494449 4676444 
3864.525 4833051 4911861 4879457 4736132 4517449 4279669 4090080 4007372 
3868.382 4074160 4291381 4602096 4894134 5061949 5071704 4965449 4822531 
3872.240 4714996 4691449 4760619 4891152 5019746 5083672 5045892 4908678 
3876.097 4703038 4471449 4254506 4084528 3989515 3989081 4089411 4273244 
3879.955 4495520 4690076 4792579 4772981 4643087 4448720 4247915 4104229 
3883.812 4070681 4176149 4407882 4700727 4956969 5089338 5069458 4926338 
3887.669 4720120 4509012 4341913 4252030 4254138 4344591 4498734 4677650 
3891.527 4835530 4938905 4973693 4942793 4858750 4737070 4593423 4441455 
3895.384 4295296 4168990 4074260 4021518 4016870 4060012 4142697 4248584 
3899.242 4356773 4445439 4500877 4521735 4519994 4515976 4533453 4590912 
3903.099 4693693 4829365 4970811 5086455 5151598 5157968 5112806 5031981 
3906.957 4932203 4827824 4728629 4640139 4566300 4509146 4470111 4447749 
3910.814 4437070 4429706 4414676 4383782 4334149 4271672 4208735 4161731 
3914.671 4146209 4170261 4231888 4318554 4413036 4498734 4568443 4623696 
3918.529 4670348 4711043 4742430 4754690 4739247 4692956 4623662 4548286 
3922.386 4489226 4466227 4488590 4550931 4631800 4702402 4736835 4723236 
3926.244 4665726 4578623 4478881 4381105 4295062 4225732 4176149 4149922 
3930.101 4151427 4185717 4253703 4350012 4460101 4564927 4646268 4692588 
3933.958 4703775 4688970 4661674 4634982 4617333 4610100 4608593 4603201 
3937.816 4585386 4550730 4502250 4449489 4406810 4389305 4407045 4462411 
3941.673 4545172 4636187 4708699 4740319 4719484 4649918 4546645 4431781 
3945.531 4328761 4256079 4226434 4244234 4305201 4396802 4501881 4603503 
3949.388 4686592 4742597 4768793 4767352 4744138 4707158 4665324 4625471 
3953.246 4593557 4572528 4561947 4559403 4561512 4564392 4565162 4562081 
3957.103 4555083 4544636 4532683 4520931 4511490 4506200 4506702 4512795 
3960.960 4523777 4536533 4547650 4553342 4551969 4543197 4529570 4514737 
3964.818 4502484 4495721 4495319 4500174 4507673 4514168 4516880 4513700 
3968.675 4504560 4491168 4477509 4467734 4466261 4476136 4497864 4528866 
3972.533 4564291 4597843 4623562 4637359 4638699 4629690 4614855 4598513 
3976.390 4584081 4572629 4563420 4555418 4547449 4540351 4535697 4535897 
3980.248 4542259 4555217 4572930 4592787 4612377 4629825 4644560 4657253 
3984.105 4668272 4677650 4684080 4685655 4680061 4666161 4644660 4617836 
3987.962 4589271 4563621 4545138 4536299 4538208 4549424 4567137 4587563 
3991.820 4607890 4626174 4642015 4656449 4670516 4684817 4698348 4708531 
3995.677 4712551 4708196 4694932 4675037 4652397 4631733 4616496 4608392 
3999.535 4606985 4610636 4617233 
##END=
