##TITLE=lc_3 Sep 07 10:18:43 2026 (GMT+02:00)
##JCAMP-DX=5.01  $$ Nicolet v. 970
##DATATYPE=INFRARED SPECTRUM
##ORIGIN=Vojna akademija
##OWNER=Nicolet
##LONGDATE=2026/09/07
##TIME=10:19:10
##SPECTROMETER/DATA SYSTEM=Nicolet iS20
##DATA PROCESSING=
Ratio against background
%Transmittance->Absorbance
Truncated
ElementMultiply or ElementDivide
##COMMENTS=
Number of sample scans: 8
Collection length: 11,90 sec
Sample gain: 8,0
Background collected on: Mon Sep 07 10:04:03 2026 (GMT+02:00);
Number of background scans: 8
Background gain: 8,0
Sample spacing:  1,000
Number of scan points: 12415
Resolution points: 8286
Number of FFT points: 65536
Apodization: N-B strong;
Phase correction: Mertz;
Laser frequency: 15798,00 cm-1
Number of rejected sample scans: 0
Number of rejected background scans: 0
Bench serial number: BER2010005;
##RESOLUTION= 4,000
##XUNITS=1/CM
##YUNITS=ABSORBANCE
##FIRSTX=400.156891
##LASTX=4000.123047
##FIRSTY=-0.005250
##MAXX=4000.123047
##MINX=400.156891
##MAXY=0.267376
##MINY=-0.010052
##XFACTOR=1.000000
##YFACTOR=1.000000E-009
##NPOINTS=7468
##DELTAX=0.482117
##ZPD=6100
##XYDATA=(X++(Y..Y))
400.157 -5250330 -6982006 -7991574 -8231448 -7625913 -6162343 -3949982 
403.532 -1229254 1658273 4348239 6493706 7883700 8475956 8385449 7801785 
407.389 6921192 5908479 4890750 4010649 3437774 3323904 3753661 4665291 
411.246 5838790 6904931 7465783 7193167 5940859 3810281 1108189 -1767776 
415.103 -4490751 -6816958 -8597573 -9723262 -10051516 -9405783 -7669798 
418.477 -5016468 -2015201 551501 2133464 2686116 2520183 2074931 1726596 
422.334 1767349 2347151 3465996 4971548 6610395 8114820 9270407 9969340 
426.191 10179728 9902284 9146774 7940726 6356504 4525183 2649744 959560 
430.048 -354389 -1169149 -1483227 -1404894 -1119116 -800575 -564468 -428940 
433.905 -329624 -156629 191358 754985 1494395 2301447 3050771 3647894 
437.762 4069343 4358981 4603871 4893967 5298179 5841544 6493840 7169384 
441.619 7745789 8102836 8151687 7877864 7343775 6671325 5987384 5388749 
445.476 4916687 4551701 4225564 3843842 3329246 2642343 1801884 876749 
449.333 -26605 -793960 -1321526 -1527836 -1384285 -926928 -265157 453543 
453.190 1079920 1513679 1731786 1781988 1758632 1762924 1882143 2149613 
457.047 2528648 2916988 3197246 3294156 3219511 3053307 2905513 2869956 
460.904 2996452 3286644 3692638 4133865 4515106 4765008 4853757 4796096 
464.761 4636991 4433723 4238646 4079545 3958484 3851765 3729297 3574491 
468.617 3406515 3282104 3290150 3519104 4026000 4799078 5742553 6673580 
472.474 7371173 7668655 7501516 6932807 6103433 5182781 4309251 3576429 
476.331 3041929 2726392 2623609 2696185 2877428 3072361 3172847 3089279 
480.188 2770173 2232368 1563590 917754 458518 304044 489732 952421 1553514 
484.527 2128203 2553245 2778010 2832868 2795684 2750099 2747165 2793350 
488.384 2863252 2925761 2967293 3004593 3076465 3228457 3487673 3848088 
492.241 4266251 4675037 5010294 5221411 5287782 5214302 5022629 4742563 
496.098 4407312 4052453 3707909 3397132 3131161 2910283 2729860 2586242 
499.955 2480959 2417982 2393860 2389062 2364675 2275966 2096805 1838018 
503.812 1551918 1322569 1236465 1346498 1657442 2115351 2629376 3095953 
507.669 3443686 3652907 3748414 3772010 3749684 3675662 3518904 3248252 
511.526 2863019 2409885 1977694 1664559 1536389 1610447 1849066 2181814 
515.383 2528715 2837638 3091982 3308379 3512925 3719138 3915452 4073323 
519.240 4164240 4179361 4132995 4053089 3963767 3874899 3781669 3677132 
523.097 3562932 3457913 3389351 3377763 3416567 3466230 3462957 3353588 
526.954 3128391 2831401 2540513 2332927 2251652 2286325 2382765 2469863 
530.811 2502221 2486724 2488024 2594842 2885666 3378732 4019646 4688736 
534.667 5252063 5602467 5698471 5570783 5300594 4981369 4678521 4421639 
538.524 4205891 4013191 3831039 3662697 3525652 3441248 3422645 3472208 
542.381 3585015 3754129 3973732 4233862 4513130 4769765 4947552 4993736 
546.238 4880697 4627480 4298944 3990652 3786683 3734478 3826192 4007406 
550.095 4197527 4326585 4365943 4331271 4271170 4237910 4266552 4358547 
553.952 4486548 4608325 4689205 4714192 4690645 4637962 4578689 4528063 
557.809 4491335 4470847 4470412 4498868 4568242 4686157 4848128 5034998 
561.666 5216918 5359530 5436355 5437697 5370331 5255920 5119511 4984686 
565.523 4863005 4751340 4630293 4472119 4248183 3939793 3550204 3110270 
569.380 2676648 2313906 2083854 2022998 2131266 2372704 2687316 3009364 
573.237 3281436 3474613 3586719 3639140 3661494 3680040 3707208 3740092 
577.094 3765927 3771977 3755967 3729030 3713657 3739090 3832644 4006771 
580.951 4253067 4538074 4812546 5020048 5114080 5072576 4904992 4652564 
584.808 4374176 4131591 3962329 3869048 3819875 3766128 3661862 3485101 
588.665 3246883 2987778 2761637 2612708 2563677 2608842 2718457 2850178 
592.521 2966126 3039727 3055910 3009631 2900209 2735495 2534347 2334459 
596.378 2188241 2147715 2252584 2509885 2889702 3328011 3751088 4095733 
600.235 4329531 4460837 4528331 4580263 4649215 4742095 4837875 4901440 
604.092 4895039 4794790 4596404 4311459 3961360 3573923 3182059 2820429 
607.949 2529848 2349350 2304246 2400023 2613642 2898575 3189536 3425250 
611.806 3560026 3574257 3475181 3288247 3046166 2776809 2501454 2234366 
615.663 1985816 1766251 1587101 1458521 1390274 1388811 1459186 1604627 
619.520 1823810 2107426 2431210 2756468 3030217 3198748 3225686 3105864 
623.377 2876093 2606975 2392993 2316870 2426811 2718190 3133464 3573322 
627.234 3926753 4110517 4082387 3857849 3500098 3108134 2781811 2595675 
631.091 2582109 2720924 2950780 3188668 3364573 3437741 3411792 3326375 
634.948 3242110 3210164 3250856 3348379 3460151 3537911 3548434 3489811 
638.805 3389852 3294623 3243445 3254996 3318262 3399670 3454807 3448395 
642.662 3366544 3216106 3019307 2804288 2597509 2417382 2276466 2182847 
646.519 2141122 2151178 2207423 2296851 2403488 2513818 2623809 2740163 
650.375 2874926 3036156 3216840 3392156 3522077 3564736 3496357 3319530 
654.232 3068189 2793950 2555478 2395825 2334093 2364575 2464564 2606775 
658.089 2767873 2933300 3095953 3248820 3383207 3487406 3550839 3567342 
661.946 3539281 3477152 3396197 3314589 3247618 3206659 3199082 3229058 
665.803 3294857 3385778 3477152 3523013 3472709 3309848 3081237 2870123 
669.660 2739163 2707554 2758536 2858683 2968461 3053774 3091548 3078200 
673.517 3029950 2976434 2946610 2956485 3005427 3078367 3154524 3215572 
677.374 3254027 3271020 3273056 3266046 3252592 3232563 3206225 3175450 
681.231 3144778 3118179 3096788 3078534 3060214 3042296 3031051 3039326 
685.088 3079835 3156693 3260838 3367913 3447426 3471507 3431128 3341300 
688.945 3240441 3174149 3181759 3282504 3469870 3716064 3983229 4240420 
692.802 4469542 4670549 4856773 5046764 5255987 5491283 5751719 6030689 
696.659 6319621 6611236 6900824 7185553 7464805 7738267 8007751 8275307 
700.516 8541473 8803949 9055757 9286316 9482489 9633351 9732556 9778743 
704.373 9775998 9731030 9654390 9560454 9473447 9425192 9453162 9594259 
708.229 9871235 10286691 10818298 11426442 12062898 12685481 13272777 
711.604 13827791 14374439 14945094 15571791 16274720 17060286 17925926 
714.979 18865542 19874484 20948880 22083144 23263760 24465612 25657650 
718.354 26803876 27874338 28848994 29713998 30456668 31058974 31493004 
721.729 31728734 31742636 31526066 31091896 30472804 29717794 28880298 
725.104 28019534 27189186 26431406 25774472 25225198 24770548 24379910 
728.478 24018130 23653394 23267464 22861482 22451832 22061076 21705678 
731.853 21391432 21111534 20854658 20613082 20389766 20197596 20052630 
735.228 19962144 19917910 19894256 19857314 19775606 19633730 19437666 
738.603 19211454 18985916 18784782 18618430 18481872 18359220 18233318 
741.978 18093292 17935730 17763284 17579690 17387068 17185742 16977482 
745.352 16768390 16569450 16393725 16251847 16147427 16077211 16031999 
748.727 16002709 15981773 15964001 15942965 15904777 15827624 15684796 
752.102 15452223 15122293 14709763 14254583 13808020 13421272 13128772 
755.477 12938320 12831965 12774088 12730072 12673949 12600642 12523493 
758.852 12466612 12452188 12491539 12580859 12702777 12832921 12948493 
762.227 13035346 13089227 13113371 13112756 13090389 13042994 12962012 
765.601 12839234 12672857 12473159 12265339 12082657 11959244 11916297 
768.976 11953215 12044434 12147052 12216909 12219431 12144598 12007984 
772.351 11843968 11687638 11562670 11471722 11398889 11318553 11210282 
775.726 11068217 10902551 10732363 10571883 10423409 10273594 10100634 
779.101 9886793 9630574 9351754 9088202 8879493 8756816 8728925 8781159 
782.958 8878444 8978186 9044017 9049701 8985492 8854164 8668044 8443082 
786.815 8200881 7965530 7760732 7608798 7523732 7507617 7548714 7624512 
790.671 7707102 7769435 7793183 7771256 7707237 7612878 7504415 7400056 
794.528 7317120 7270553 7270654 7319681 7411381 7531621 7662854 7788089 
798.385 7897973 7991921 8076674 8159520 8243124 8321137 8380652 8409501 
802.242 8405245 8380855 8364641 8391091 8486362 8658410 8890247 9143594 
806.099 9368681 9526414 9595851 9585045 9524958 9463490 9449065 9517879 
809.956 9689828 9961644 10312816 10707401 11104485 11462197 11742340 
813.331 11918681 11977840 11921984 11766342 11536877 11264483 10978393 
816.706 10707469 10473811 10290999 10163583 10084729 10036644 9993785 
820.081 9932184 9833816 9695351 9529429 9361199 9218283 9118723 9064925 
823.938 9041242 9021114 8976563 8891870 8768616 8625049 8485416 8371262 
827.794 8290504 8235627 8187712 8127109 8042616 7936610 7822633 7717862 
831.651 7633347 7567797 7506842 7429480 7320388 7176828 7013717 6858342 
835.508 6743033 6691278 6709920 6787154 6898232 7016343 7121519 7209067 
839.365 7287872 7374780 7484357 7622252 7782051 7947949 8100237 8224585 
843.222 8314044 8371430 8404603 8422102 8429906 8429940 8423758 8416055 
847.079 8417001 8441292 8502952 8607474 8747249 8899615 9033090 9112666 
850.936 9113885 9027136 8861164 8638265 8389739 8146623 7932662 7764982 
854.793 7652400 7595816 7588466 7616251 7658167 7688552 7687338 7643733 
858.650 7564156 7470367 7395843 7372690 7419807 7536678 7703291 7888762 
862.507 8059527 8193148 8280845 8325697 8334816 8313099 8259400 8169716 
866.364 8044608 7896320 7749128 7637494 7591770 7627716 7740190 7904856 
870.221 8085181 8244542 8359980 8425481 8451629 8457001 8462205 8482307 
874.078 8524950 8592739 8685317 8801244 8936751 9085496 9237000 9377383 
877.935 9493393 9574307 9614448 9612280 9568109 9482014 9354191 9188636 
881.792 8997332 8803712 8641442 8544751 8540020 8634378 8813045 9040397 
885.648 9270035 9461628 9585722 9635248 9620478 9563435 9486654 9407754 
889.505 9336045 9273149 9217200 9164981 9114662 9066516 9022365 8985121 
893.362 8958703 8946424 8949198 8963134 8978761 8979945 8948150 8869280 
897.219 8737174 8557762 8347246 8127007 7915891 7724270 7553535 7399146 
901.076 7256908 7128222 7021799 6951089 6928464 6957688 7032002 7134723 
904.933 7244677 7342158 7415425 7461232 7483817 7490458 7486818 7476199 
908.790 7459379 7436020 7406426 7372859 7338720 7308965 7289995 7290332 
912.647 7319850 7387822 7499999 7653344 7834205 8018213 8177009 8284290 
916.504 8324244 8296516 8215839 8104794 7984463 7869563 7764780 7668318 
920.361 7577912 7496964 7435547 7408954 7429076 7498684 7607382 7734085 
924.218 7850230 7929995 7957735 7929490 7853605 7747307 7632774 7532228 
928.075 7466592 7453985 7505156 7624107 7804180 8030296 8279258 8526267 
931.932 8750325 8936751 9080793 9183729 9250234 9284590 9289803 9269967 
935.789 9232464 9190700 9161732 9160649 9195269 9259643 9334894 9390824 
939.646 9398883 9340243 9214052 9037725 8843748 8670072 8545630 8487037 
943.502 8492039 8542656 8612071 8674736 8714558 8728452 8725781 8723076 
947.359 8736904 8775243 8834246 8899209 8951938 8976664 8969087 8937834 
951.216 8902354 8883889 8895015 8934553 8986812 9028083 9037893 9009984 
955.073 8956538 8905331 8886832 8923797 9019727 9157130 9302226 9419910 
958.930 9485029 9490582 9448692 9383647 9322233 9282965 9273657 9290751 
962.787 9325584 9368275 9411309 9450148 9480558 9497525 9495628 9471245 
966.644 9425294 9366108 9307812 9264957 9249793 9266413 9310249 9369765 
970.501 9431355 9484453 9523738 9550665 9570853 9591617 9617497 9649274 
974.358 9681494 9704839 9705313 9668179 9581590 9440802 9251249 9029943 
978.215 8804997 8605853 8457441 8371836 8343496 8351062 8362817 8349002 
982.072 8287227 8171640 8010315 7823274 7632673 7457322 7308696 7190404 
985.929 7100199 7033787 6988362 6962974 6958462 6975600 7012774 7064836 
989.786 7123237 7176828 7213750 7225036 7206372 7160255 7097639 7036683 
993.643 6996881 6996241 7043889 7136912 7260479 7391496 7506370 7586881 
997.500 7626400 7630245 7613350 7591972 7579901 7583644 7602122 7629064 
1001.356 7656750 7679177 7692566 7695298 7686462 7665181 7631695 7588736 
1005.213 7543421 7505257 7484930 7489043 7516180 7555255 7587859 7593827 
1009.070 7557345 7473300 7349740 7206204 7067093 6955500 6887392 6866959 
1012.927 6887729 6934996 6993109 7047257 7088243 7112358 7120745 7116197 
1016.784 7102658 7083090 7059414 7033450 7007184 6983176 6965533 6958732 
1020.641 6966442 6992200 7037289 7101109 7179860 7268161 7357963 7440334 
1024.498 7507078 7552692 7576024 7581352 7578519 7581419 7603943 7658437 
1028.356 7749668 7874760 8020981 8168973 8295401 8376633 8395651 8344779 
1032.213 8229109 8065366 7881676 7712026 7587117 7531452 7554513 7648084 
1036.070 7787819 7942077 8079308 8176975 8228637 8243157 8239037 8234478 
1039.928 8240456 8254200 8263081 8249540 8201353 8119108 8017133 7917342 
1043.785 7841661 7801448 7792643 7796995 7789270 7748420 7663832 7540791 
1047.643 7396214 7255021 7140112 7067227 7044529 7071707 7142571 7247103 
1051.500 7373937 7509303 7638439 7748623 7830629 7882317 7909479 7923821 
1055.358 7937824 7958949 7986691 8011564 8019664 7998671 7943865 7860589 
1059.215 7763026 7667845 7589814 7537049 7510078 7504246 7514360 7537251 
1063.072 7572045 7618442 7673275 7727474 7767681 7778576 7749263 7677423 
1066.930 7571675 7448322 7326252 7221229 7140381 7081305 7034898 6991358 
1070.787 6945870 6901767 6869619 6864300 6897525 6971627 7078240 7199567 
1074.645 7314155 7403326 7457356 7476839 7470839 7450951 7425369 7395068 
1078.502 7353683 7291241 7200140 7081069 6944726 6810276 6697335 6621968 
1082.359 6587922 6587922 6605248 6622002 6623617 6603935 6565721 6517586 
1086.217 6468885 6424864 6384983 6344097 6294340 6229866 6149774 6059080 
1090.074 5967598 5887621 5832107 5810548 5828111 5883994 5970856 6076686 
1093.932 6184659 6276658 6336331 6350923 6316260 6236959 6128939 6013320 
1097.789 5916171 5860115 5858503 5912778 6010262 6127494 6235580 6310948 
1101.647 6341307 6329708 6292256 6252858 6233429 6244589 6282036 6328329 
1105.504 6361346 6360942 6319285 6242404 6148262 6058071 5989669 5951843 
1109.361 5943613 5957688 5986208 6024238 6071209 6127964 6194003 6264623 
1113.219 6332599 6390632 6435053 6468179 6496464 6527273 6563904 6602085 
1117.076 6632128 6643567 6629874 6593473 6545201 6501341 6475510 6474199 
1120.934 6494883 6528080 6562962 6591892 6612851 6629740 6647403 6668331 
1124.791 6691682 6714126 6732971 6749225 6768138 6796745 6841040 6901296 
1128.649 6972098 7045035 7113099 7174032 7231504 7292893 7363860 7444918 
1132.506 7529193 7604853 7660426 7689463 7692768 7677254 7651928 7623770 
1136.363 7594232 7561964 7525215 7486312 7452974 7436289 7445895 7485402 
1140.221 7550636 7631324 7715703 7797231 7876716 7961818 8061484 8179710 
1144.078 8311444 8442609 8553706 8627990 8657903 8647729 8611801 8570265 
1147.936 8542927 8543264 8578106 8647019 8743665 8857816 8975886 9082993 
1151.793 9163423 9205016 9202715 9161292 9095680 9027507 8979809 8967294 
1155.651 8994829 9054437 9130566 9203899 9260016 9292004 9301211 9293290 
1159.508 9275823 9254498 9230874 9204509 9173306 9136454 9094665 9051054 
1163.365 9009612 8976664 8959075 8963439 8995133 9055655 9140244 9236559 
1167.223 9328191 9395530 9421671 9398443 9326295 9214797 9077647 8929006 
1171.080 8778793 8632046 8490281 8353630 8224315 8106212 8003532 7919130 
1174.938 7852154 7797703 7748656 7699244 7646498 7592309 7541330 7497875 
1178.795 7463592 7436255 7408988 7375150 7331037 7278842 7226855 7186429 
1182.652 7169215 7181646 7223149 7285480 7356042 7422032 7473604 7507381 
1186.510 7526496 7538836 7552692 7574641 7606640 7644880 7681774 7709193 
1190.367 7721065 7715163 7694792 7666530 7639181 7619926 7614025 7623163 
1194.225 7646768 7682752 7728047 7779622 7832654 7880900 7916869 7931987 
1198.082 7919670 7878436 7812378 7731420 7649837 7581891 7537319 7520563 
1201.940 7529429 7556671 7593321 7631964 7667710 7699210 7727440 7753480 
1205.797 7778070 7800570 7819664 7835285 7848172 7861229 7878571 7903710 
1209.654 7938668 7982674 8032794 8083898 8130654 8168129 8193993 8207802 
1213.512 8211585 8208984 8203548 8198078 8193216 8187847 8178967 8164213 
1217.369 8142807 8116644 8090008 8069214 8058548 8059628 8069721 8081941 
1221.227 8088860 8084506 8067560 8042515 8018213 8004037 8006400 8025335 
1225.084 8053620 8079341 8089806 8077519 8042076 7991955 7940659 7903710 
1228.942 7891563 7907523 7946801 7998941 8052405 8098312 8133996 8162457 
1232.799 8190582 8224281 8266256 8314213 8360081 8393827 8405820 8390483 
1236.656 8346840 8279629 8197132 8110330 8028845 7961548 7914642 7890854 
1240.514 7891089 7914304 7957498 8017504 8091291 8176097 8268181 8363391 
1244.371 8455447 8535999 8597099 8632181 8639347 8623630 8596119 8571448 
1248.229 8563946 8583040 8629748 8696438 8769259 8834077 8879865 8903200 
1252.086 8907833 8903775 8901712 8909491 8930359 8962017 8998821 9034646 
1255.943 9065568 9091045 9113749 9138450 9170023 9213037 9269188 9337061 
1259.801 9412223 9487500 9553883 9603676 9632335 9639923 9631861 9616583 
1263.658 9603676 9599103 9605539 9620817 9640940 9662419 9684984 9711005 
1267.516 9745025 9789655 9844255 9903945 9961847 10012264 10053869 10090799 
1271.373 10131734 10185597 10257276 10344847 10439462 10528496 10598908 
1274.748 10641758 10655171 10643151 10613644 10576398 10540548 10512134 
1278.124 10495162 10491869 10502222 10524355 10554806 10589368 10624000 
1281.499 10657345 10690386 10726861 10769893 10820200 10873570 10922427 
1284.874 10957766 10974519 10974756 10969319 10974451 11005546 11072126 
1288.249 11172883 11295529 11421918 11536197 11628723 11699586 11756333 
1291.625 11809170 11865897 11927672 11990443 12048317 12097000 12137477 
1295.000 12175504 12219328 12275291 12344589 12423172 12502724 12575947 
1298.375 12637891 12688312 12730993 12770540 12810022 12850941 12892649 
1301.750 12934974 12978364 13025102 13077788 13136901 13199608 13259898 
1305.126 13309024 13339126 13344558 13324058 13280293 13218598 13145678 
1308.501 13067237 12988708 12913879 12845480 12784872 12731710 12683842 
1311.876 12637413 12588157 12532598 12469443 12400363 12329454 12262032 
1315.251 12203141 12156525 12124530 12107153 12102860 12107937 12116761 
1318.627 12121736 12115705 12092128 12047635 11983562 11904820 11819589 
1322.002 11737030 11665106 11609597 11573456 11556817 11557770 11573116 
1325.377 11598298 11628689 11659932 11688829 11714019 11738085 11766171 
1328.752 11805698 11864059 11946267 12053189 12181161 12322943 12471216 
1332.128 12619470 12765762 12911320 13060578 13217916 13385903 13563938 
1335.503 13748747 13934629 14116414 14290194 14454178 14607840 14751342 
1338.878 14883575 15002815 15106924 15195651 15270153 15333787 15390735 
1342.253 15445082 15500706 15561282 15630282 15711077 15805699 15914401 
1345.629 16034544 16161837 16290717 16416332 16536543 16652865 16769769 
1349.004 16892972 17027202 17173092 17327098 17480782 17624304 17749268 
1352.379 17850172 17926614 17983318 18028734 18072186 18124486 18195448 
1355.754 18293448 18426834 18602452 18825992 19101304 19430492 19814100 
1359.130 20253104 20752118 21322172 21982926 22757802 23668230 24718250 
1362.505 25882638 27105310 28313930 29442692 30444868 31298634 31996690 
1365.880 32539890 32938440 33216692 33422836 33626820 33919632 34388916 
1369.255 35095300 36067236 37301344 38780000 40488648 42431816 44628244 
1372.630 47090156 49794248 52639964 55440640 57972556 60032184 61502976 
1376.006 62356176 62606400 62272648 61359688 59871852 57842472 55359292 
1379.381 52565164 49613880 46648016 43765740 41017524 38431004 36022344 
1382.756 33803932 31781458 29942408 28250874 26650910 25080968 23490308 
1386.131 21859524 20213876 18616148 17141380 15841920 14733277 13800735 
1389.507 13018069 12359759 11806651 11341917 10947640 10601964 10282348 
1392.882 9969103 9654152 9341902 9048855 8793738 8586993 8425447 8298711 
1396.739 8196322 8115293 8058919 8032085 8033975 8054699 8077889 8089974 
1400.597 8085080 8066076 8039579 8011159 7980784 7944472 7897399 7840312 
1404.454 7782793 7741910 7731926 7756110 7803708 7854786 7890449 7902191 
1408.312 7895780 7889740 7906307 7961919 8059459 8187577 8325797 8456698 
1412.169 8574490 8684979 8800297 8928904 9070101 9213477 9345829 9458174 
1416.026 9553137 9645039 9756817 9907403 10101177 10320111 10532061 10710864 
1419.884 10855462 10985496 11126513 11294577 11493428 11719124 11967928 
1423.259 12240867 12546889 12896779 13296111 13738283 14208294 14690878 
1426.634 15181514 15692251 16252259 16900928 17674996 18594290 19649536 
1430.010 20807312 22022836 23258062 24488396 25701450 26893860 28064880 
1433.385 29219964 30376458 31567502 32846336 34275348 35897696 37687664 
1436.760 39535776 41296160 42869176 44244284 45478480 46650524 47836280 
1440.135 49090720 50443500 51897724 53437768 55035648 56659356 58283056 
1443.511 59885772 61452316 62975468 64456276 65907708 67354720 68828120 
1446.886 70351616 71927896 73535744 75139400 76715320 78273648 79853792 
1450.261 81512768 83296792 85219312 87243968 89291744 91272224 93104800 
1453.636 94752848 96222784 97543664 98743832 99825256 100749856 101447072 
1457.012 101877984 102086456 102165144 102190872 102179136 102109968 
1459.905 101960736 101726192 101416976 101048728 100624736 100123576 
1462.798 99491232 98649056 97510776 96021352 94187280 92061424 89698584 
1466.173 87117936 84292872 81197208 77837336 74274264 70592496 66886448 
1469.548 63217120 59565804 55848944 51941340 47761564 43379908 39078884 
1472.923 35238368 32105562 29684974 27803400 26240698 24841238 23529620 
1476.299 22302764 21190990 20220886 19389918 18669308 18017648 17398898 
1479.674 16791120 16188422 15595798 15023498 14479767 13968947 13493214 
1483.049 13055867 12661565 12316228 12021202 11771074 11552257 11347190 
1486.424 11139329 10919710 10689300 10454973 10224674 10000329 9777930 
1489.800 9553646 9332322 9126235 8949672 8808108 8698298 8609266 8527720 
1493.657 8442136 8345962 8238970 8127649 8020643 7923989 7834947 7742382 
1497.515 7632537 7497538 7339259 7166352 6988698 6814012 6646730 6488728 
1501.372 6342248 6211346 6100308 6013488 5952112 5912611 5885069 5853667 
1505.229 5797888 5697128 5545445 5366373 5203403 5082398 4993703 4914341 
1509.087 4830538 4741224 4654172 4579694 4526657 4497964 4489461 4492474 
1512.944 4497395 4497964 4491034 4475132 4448151 4405438 4341411 4254707 
1516.802 4153435 4054527 3977444 3934577 3928191 3952064 3993628 4034996 
1520.659 4055296 4039912 3987977 3913847 3834148 3757104 3681009 3599147 
1524.516 3506211 3400905 3287813 3176552 3077132 2996052 2934501 2890736 
1528.374 2861418 2844675 2839605 2845109 2858650 2877294 2897207 2915653 
1532.231 2931532 2945542 2958853 2971931 2983707 2993249 3002291 3016003 
1536.089 3041996 3091281 3176385 3309347 3496224 3729598 3974401 4164976 
1539.946 4233929 4157349 3974501 3747177 3522345 3318495 3136134 2971630 
1543.804 2824598 2698919 2601242 2535014 2498188 2484658 2487491 2502187 
1547.661 2525882 2558011 2596242 2635343 2667246 2683816 2681282 2661412 
1551.518 2629809 2591409 2549179 2503454 2454168 2403855 2360177 2335425 
1555.376 2343987 2398224 2507453 2673447 2884932 3101092 3230760 3173348 
1559.233 2930998 2635810 2402622 2259779 2184445 2147049 2125240 2105428 
1563.091 2080857 2050462 2016806 1985982 1965778 1963382 1985283 2037146 
1566.948 2123841 2247922 2406454 2585942 2757802 2886000 2944675 2934267 
1570.806 2878262 2806689 2742397 2696185 2670980 2665779 2679248 2710855 
1574.663 2761504 2829834 2908048 2981539 3034722 3061582 3068523 3068189 
1578.520 3071727 3084707 3106098 3129960 3148049 3151820 3136801 3104563 
1582.378 3061082 3013635 2968027 2927162 2891737 2862752 2842807 2836337 
1586.235 2848110 2879329 2926628 2980838 3029650 3062650 3073762 3064853 
1590.093 3043864 3021609 3006828 3004993 3017105 3041829 3077499 3124019 
1593.950 3181659 3249588 3323804 3397065 3460084 3505576 3531230 3540483 
1597.807 3540149 3538312 3541085 3550639 3566507 3586218 3607666 3629517 
1601.665 3651069 3671318 3687993 3698385 3700457 3695010 3685720 3678202 
1605.522 3676898 3682613 3691468 3695946 3688227 3663733 3623537 3574324 
1609.380 3523848 3477118 3433633 3388215 3334522 3268683 3191505 3107767 
1613.237 3024445 2946710 2876594 2811858 2747932 2679782 2606308 2532648 
1617.095 2467797 2418315 2383598 2359044 2338823 2319502 2299948 2280896 
1620.952 2263143 2246389 2227739 2203194 2169959 2130700 2093609 2069238 
1624.809 2063479 2076296 2101466 2128103 2143553 2138325 2110156 2066142 
1628.667 2019935 1985949 1973234 1983286 2011846 2051228 2094774 2136427 
1632.524 2172224 2198898 2212852 2208722 2180615 2125772 2049729 1968641 
1636.382 1900013 1851228 1818220 1791769 1764754 1734281 1701980 1673108 
1640.239 1654282 1650457 1662863 1688541 1722072 1756603 1786313 1807473 
1644.097 1817422 1814427 1797492 1766251 1724267 1679560 1644503 1627541 
1647.954 1629071 1642874 1661400 1680126 1697689 1716816 1742863 1783718 
1651.811 1844673 1917785 1970371 1955893 1864006 1733449 1608085 1509556 
1655.669 1441035 1397487 1370795 1351883 1332473 1307380 1275909 1242180 
1659.526 1213737 1199350 1206029 1237229 1290066 1354874 1417897 1465403 
1663.384 1490106 1493996 1485451 1474912 1471055 1480830 1508326 1555509 
1667.241 1620856 1698221 1775433 1834791 1859780 1841778 1786213 1708300 
1671.099 1624947 1547562 1480597 1424114 1375981 1333869 1298008 1269994 
1674.956 1252548 1246633 1250255 1258928 1267800 1274314 1277238 1276540 
1678.813 1272752 1266571 1258862 1251219 1245370 1243875 1249192 1264145 
1682.671 1290863 1329049 1372092 1409487 1432657 1443062 1449246 1458189 
1686.528 1471820 1488909 1505167 1515807 1516539 1504469 1480231 1446753 
1690.386 1408257 1367937 1328152 1289700 1253179 1219884 1192406 1174731 
1694.243 1172937 1192406 1235103 1294452 1357201 1410019 1448315 1474779 
1698.100 1496622 1520063 1549457 1583842 1616499 1637120 1640678 1629836 
1701.958 1610447 1587334 1563257 1540546 1522590 1513812 1519697 1543538 
1705.815 1583675 1632297 1679660 1716084 1735112 1734580 1715020 1679294 
1709.673 1632197 1579286 1525516 1474779 1429167 1389675 1357201 1333137 
1713.530 1319212 1318181 1331609 1358996 1396523 1437477 1473349 1496024 
1717.388 1501743 1493697 1480597 1470590 1467331 1469891 1474479 1476873 
1721.245 1473083 1461447 1441467 1415603 1387249 1360558 1337458 1318348 
1725.102 1301897 1286211 1270725 1255970 1243775 1235900 1234338 1239323 
1728.960 1249590 1263082 1276706 1288105 1296081 1300601 1302894 1305054 
1732.817 1310604 1323732 1347296 1379005 1411481 1437843 1454266 1460849 
1736.675 1459984 1455297 1451174 1452936 1465403 1490471 1525616 1563690 
1740.532 1596811 1618761 1626543 1619060 1596047 1556939 1500911 1427937 
1744.390 1340017 1241981 1141708 1047901 970187 915994 889631 890229 913737 
1748.729 954181 1006917 1069590 1141442 1219917 1299138 1370197 1425078 
1752.587 1459652 1474579 1473682 1461414 1440303 1411348 1372690 1323566 
1756.444 1265341 1204201 1150179 1112673 1097060 1103438 1127589 1160943 
1760.301 1192074 1209750 1203935 1170644 1113636 1042055 965969 893151 
1764.159 828544 774270 732979 707424 700089 713995 749276 803016 868582 
1768.498 937445 1001935 1056304 1096130 1117191 1114600 1083641 1023688 
1772.356 941131 848164 756744 673573 600107 535842 481140 438684 413245 
1776.695 408569 425749 462067 511128 564175 612417 649183 671317 680642 
1781.035 681239 678286 674137 668927 660631 648187 632326 616664 606278 
1785.375 605515 615735 634881 657976 679613 695410 702943 701417 692224 
1789.714 677921 662357 650742 649714 664680 697036 741576 787381 821573 
1794.054 834055 819813 779249 718310 646428 574991 512620 463195 424157 
1798.393 388803 347980 296319 234453 170740 117873 87416 84732 107334 145615 
1803.215 187446 222684 245327 254544 254278 250698 250631 258920 277785 
1807.555 306498 341812 378555 412018 436694 447871 442564 420044 383298 
1811.894 339093 297247 267805 258456 273209 310013 361742 416263 460343 
1816.234 483495 481605 458485 425583 396331 380744 382170 395767 410990 
1820.574 415633 400775 362969 304277 230309 148134 64781 -14446 -84682 
1824.913 -141823 -183026 -207038 -216079 -214224 -206640 -197036 -184749 
1828.771 -163353 -121651 -47644 62892 200805 345858 474539 568056 613280 
1833.110 606378 551932 462631 356668 253184 169579 116746 100010 119961 
1837.450 173524 254444 352821 456661 551468 624495 666671 673640 647059 
1841.789 593438 523369 447473 375239 311704 258190 214728 183369 168850 
1846.129 177568 212872 273309 350666 430856 496167 530999 527681 488836 
1850.469 426279 355176 291113 243636 215093 200573 190628 175049 147272 
1854.808 107500 62163 22730 66 1921 28463 72304 119961 157547 175977 173557 
1860.112 157017 139483 135406 154398 197855 257958 320856 370132 392152 
1864.452 380512 337070 270855 195833 126955 74955 45826 37741 42281 47384 
1869.274 42347 23028 -8018 -44562 -79911 -109030 -130959 -148547 -167923 
1873.613 -196804 -241645 -306381 -389084 -481634 -570888 -641067 -676533 
1877.471 -665087 -601959 -489941 -340318 -171732 -7388 131760 231602 289754 
1881.810 314688 323243 334782 361211 404290 452581 485585 480643 424322 
1886.150 316611 173259 20179 -111647 -195645 -219523 -189584 -129269 -67555 
1890.489 -29653 -26208 -51520 -90181 -124698 -140896 -132052 -99490 -50228 
1894.829 5765 59943 107765 148830 184529 215789 240951 255936 255372 235613 
1899.651 195998 140444 75187 8117 -53839 -106314 -148150 -180344 -204753 
1903.990 -223199 -236313 -244559 -249527 -254990 -268468 -298832 -353363 
1907.848 -433839 -532932 -634252 -714444 -750863 -731017 -657510 -547856 
1911.705 -429701 -333597 -281481 -284793 -340782 -435659 -549478 -662241 
1915.563 -760687 -838045 -893599 -928681 -944782 -942203 -918894 -874784 
1919.420 -811290 -731844 -641067 -543521 -443504 -344556 -249096 -158749 
1923.277 -76599 -8018 37476 46986 6925 -92301 -249924 -450587 -664028 
1927.617 -853025 -977182 -1007662 -934268 -769154 -541801 -289826 -48339 
1931.474 160961 331466 466180 569782 641385 672180 647855 554188 386581 
1935.814 151979 -129402 -429701 -720597 -977546 -1186630 -1343228 -1447464 
1939.672 -1497822 -1491846 -1426923 -1306066 -1146017 -978736 -842146 
1943.047 -774182 -795482 -906098 -1085538 -1300946 -1507926 -1659854 
1946.422 -1717152 -1647344 -1437458 -1098196 -667965 -207435 213269 527549 
1950.279 693817 702612 578740 368109 125264 -103995 -298666 -458101 -594977 
1954.619 -720001 -830306 -906528 -919985 -845916 -678088 -436685 -166400 
1958.476 80059 249571 307493 245327 84466 -131489 -350880 -522904 -612018 
1962.816 -605863 -516285 -376636 -235353 -141691 -124036 -182364 -280654 
1966.673 -360249 -359421 -248235 -43337 187612 357696 391821 253847 -39957 
1971.013 -418182 -777192 -1022174 -1087752 -966371 -699327 -361937 -33762 
1974.870 217977 348444 340851 202562 -39493 -344987 -663300 -938963 -1127478 
1979.210 -1205696 -1183920 -1104905 -1030504 -1017513 -1097932 -1267249 
1982.585 -1486926 -1693323 -1822518 -1837432 -1735435 -1544675 -1310493 
1985.961 -1079952 -887350 -746993 -657047 -603911 -573833 -555567 -542065 
1989.818 -529887 -515392 -494972 -468295 -439366 -415434 -404411 -410138 
1993.675 -426656 -440922 -436619 -399545 -324228 -215152 -84847 48510 165900 
1998.015 250300 285643 259517 164508 2021 -212370 -443239 -642622 -761216 
2002.355 -764656 -655856 -483388 -332703 -296614 -451415 -817839 -1346565 
2006.212 -1920833 -2396784 -2654851 -2631535 -2346365 -1883720 -1367374 
2009.587 -907123 -576513 -389051 -311282 -280356 -238334 -155536 -35783 
2013.445 88742 173027 174518 73364 -126255 -397625 -697805 -976917 -1186630 
2017.784 -1293810 -1285254 -1173115 -988224 -780367 -606492 -517047 -548849 
2021.642 -708688 -970206 -1278746 -1571781 -1787509 -1884182 -1850168 
2025.017 -1697943 -1459881 -1170967 -858680 -537565 -215218 100242 392152 
2028.874 634018 798136 869511 856796 792327 724748 706163 769689 917854 
2033.214 1118187 1315922 1453634 1486814 1399249 1201975 928081 617129 
2037.071 308620 32837 -189816 -344821 -419837 -408284 -311447 -145400 57822 
2041.411 252720 397492 457092 415268 275795 57292 -213860 -511321 -811654 
2045.751 -1096610 -1346565 -1538204 -1647509 -1652295 -1544147 -1336292 
2049.126 -1060815 -763730 -488750 -269759 -123572 -48439 -31840 -56158 
2052.983 -106777 -174746 -257971 -358991 -478887 -615194 -759496 -899749 
2056.841 -1021876 -1112143 -1161450 -1165151 -1124371 -1045709 -940286 
2060.216 -820749 -698036 -579260 -465747 -356971 -250917 -150667 -64871 
2064.073 -10569 -5997 -66263 -196937 -388058 -616054 -846941 -1046238 
2067.931 -1186696 -1252415 -1241842 -1164754 -1038503 -880373 -707398 
2071.306 -533196 -366341 -215682 -89353 4605 57358 63224 21007 -64076 
2075.646 -181072 -312838 -439830 -543885 -609238 -627370 -599014 -533693 
2079.503 -447642 -361077 -293898 -259560 -265190 -308931 -382595 -473955 
2083.360 -570623 -662837 -745075 -815987 -875512 -925474 -966140 -997315 
2087.218 -1016025 -1019033 -1002439 -963297 -901138 -819691 -726617 -633954 
2091.075 -557122 -510328 -506357 -551960 -646262 -780631 -938170 -1098758 
2094.933 -1241413 -1349141 -1411764 -1426361 -1396637 -1330148 -1237085 
2098.308 -1126751 -1006835 -884440 -765913 -657378 -565858 -497024 -453633 
2102.165 -433541 -430727 -434501 -434732 -423445 -398088 -361010 -318268 
2106.023 -274561 -231114 -183391 -123969 -45623 52553 161459 263230 332925 
2110.362 347648 292871 165668 -23855 -257110 -511156 -768030 -1014273 
2114.220 -1242239 -1447398 -1623016 -1758140 -1840929 -1860989 -1815160 
2117.595 -1711970 -1571484 -1417378 -1274550 -1159599 -1076085 -1016554 
2120.970 -965875 -909041 -836292 -748382 -654301 -569234 -507118 -475875 
2124.828 -474915 -496726 -529722 -564502 -599411 -640406 -701774 -800112 
2128.685 -947890 -1147471 -1386927 -1637606 -1862210 -2019060 -2073639 
2132.060 -2010419 -1839379 -1597828 -1339760 -1130452 -1025876 -1060749 
2135.436 -1241413 -1544510 -1925517 -2328701 -2705498 -3019849 -3252750 
2138.811 -3400847 -3473134 -3484869 -3453510 -3397296 -3331605 -3267220 
2142.186 -3210653 -3159670 -3106017 -3035775 -2932841 -2788568 -2603902 
2145.561 -2393193 -2182117 -2000096 -1866466 -1784671 -1736821 -1687844 
2148.937 -1599017 -1443138 -1215972 -942468 -666509 -440062 -302408 -267044 
2152.794 -315586 -406463 -493218 -535182 -519429 -462371 -410866 -421624 
2156.651 -552688 -840492 -1288657 -1859505 -2476487 -3044625 -3466790 
2160.027 -3671953 -3628352 -3344396 -2868495 -2280779 -1687283 -1189174 
2163.402 -870651 -774281 -895517 -1181905 -1549000 -1907374 -2175293 
2166.777 -2300028 -2268913 -2100514 -1836244 -1525888 -1220267 -957544 
2170.152 -764623 -655095 -628693 -677460 -788139 -943228 -1124272 -1312541 
2174.010 -1490129 -1640808 -1754147 -1823145 -1846406 -1826511 -1768073 
2177.385 -1678932 -1566069 -1437953 -1303060 -1171297 -1053113 -960123 
2180.760 -902626 -885961 -907553 -956155 -1012984 -1058732 -1079654 -1072152 
2184.618 -1047229 -1028157 -1043395 -1117497 -1265134 -1485836 -1764575 
2187.993 -2074958 -2387195 -2673194 -2908420 -3079106 -3177400 -3201148 
2191.368 -3152171 -3035577 -2860233 -2640097 -2395400 -2149642 -1928552 
2194.743 -1757777 -1655926 -1631797 -1680417 -1780348 -1893980 -1975820 
2198.119 -1984066 -1890747 -1693356 -1418402 -1119744 -860896 -698731 
2201.494 -666476 -762870 -953048 -1180748 -1390758 -1538765 -1606411 
2204.869 -1601394 -1549562 -1480982 -1417477 -1366548 -1321989 -1269462 
2208.244 -1194659 -1092809 -970041 -844262 -736805 -670181 -658701 -705910 
2212.102 -800806 -922101 -1042932 -1136929 -1189240 -1200706 -1191190 
2215.477 -1192941 -1243494 -1373088 -1592183 -1887943 -2225929 -2561083 
2218.852 -2845881 -3045514 -3144144 -3145361 -3066768 -2932479 -2766148 
2222.228 -2585030 -2402386 -2228435 -2071990 -1943033 -1851025 -1802457 
2225.603 -1800213 -1841391 -1916446 -2008605 -2097084 -2157918 -2169919 
2228.978 -2121254 -2012991 -1863167 -1702498 -1569272 -1495445 -1495181 
2232.353 -1559532 -1659326 -1754576 -1808264 -1802127 -1739362 -1641997 
2235.729 -1537081 -1446209 -1372956 -1305240 -1222117 -1107946 -961941 
2239.104 -801203 -653540 -544812 -487922 -475875 -485440 -486962 -458399 
2242.961 -392758 -299660 -198659 -109726 -44364 -1756 26938 52553 79396 
2247.301 102064 108626 84963 22332 -76499 -198096 -320718 -421955 -483090 
2251.640 -495601 -461709 -394281 -312374 -238334 -192532 -187465 -225153 
2255.498 -295322 -380112 -457406 -510328 -532303 -528365 -511619 -496362 
2259.355 -489809 -487360 -473922 -429039 -338497 -200315 -28229 153769 
2263.213 317241 441105 517663 551634 556809 548482 538695 531695 527947 
2267.552 525492 523336 520947 516800 505654 478984 428535 352357 259351 
2271.892 170010 112604 114360 189568 332992 519222 711771 870640 966866 
2276.231 989614 946410 856763 744463 629937 524032 430193 347350 274270 
2280.571 213104 168220 144190 143991 166397 206905 258986 316048 372420 
2284.911 423626 465086 492253 500546 487642 454803 408701 360515 324437 
2289.250 312831 333522 386979 465716 557373 646428 719704 768494 790302 
2293.590 789141 773573 754852 743136 746919 770519 813805 872931 942160 
2297.929 1015286 1086863 1153335 1212807 1263314 1303160 1328750 1336129 
2301.787 1322469 1287008 1233341 1169481 1107690 1060522 1039365 1051654 
2305.644 1098887 1177056 1277604 1390008 1502541 1604294 1686812 1743928 
2309.502 1773238 1776298 1760529 1736310 1717747 1719011 1749617 1812032 
2313.359 1900246 2000462 2094474 2164798 2200796 2200330 2171424 2128436 
2317.217 2089580 2069704 2077728 2114818 2174954 2247888 2323699 2395792 
2321.074 2462165 2524749 2587242 2651578 2717023 2778743 2829900 2863919 
2324.931 2876727 2868155 2843307 2810791 2782078 2767373 2774408 2804855 
2328.789 2853513 2908782 2956751 2985542 2989646 2972598 2947944 2934034 
2332.646 2947344 2997620 3082705 3188935 3293588 3372521 3406649 3388549 
2336.504 3324138 3232696 3141207 3075631 3055109 3086743 3165204 3274525 
2340.361 3393558 3503171 3588623 3644419 3672220 3678469 3669848 3649331 
2344.219 3615317 3562799 3486838 3387748 3272589 3155324 3051672 2975033 
2348.076 2933767 2930097 2959520 3012233 3075898 3137102 3184162 3212167 
2351.933 3223516 3227622 3237570 3264744 3314956 3387982 3477987 3578868 
2355.791 3687458 3804298 3932337 4073691 4225999 4381272 4527929 4654272 
2359.648 4754924 4833185 4900535 4970945 5056217 5157163 5261152 5341483 
2363.506 5366340 5304485 5136811 4863474 4506200 4105399 3709614 3369716 
2367.363 3124353 2992549 2972464 3042963 3170210 3315524 3446391 3538278 
2371.220 3579803 3569981 3516933 3432063 3326642 3208929 3083706 2951247 
2375.078 2810024 2658812 2498155 2332160 2167928 2014476 1879846 1768380 
2378.935 1679394 1606955 1542774 1477305 1405531 1326823 1246234 1171774 
2382.793 1111809 1071683 1051322 1045742 1046373 1044613 1033287 1009341 
2386.650 973176 927616 876019 822071 768660 718973 677025 648287 638166 
2390.990 651207 688706 747915 821473 899160 969921 1024020 1054942 1061187 
2395.329 1045509 1013924 975467 939703 914567 905303 912740 933062 957468 
2399.669 976031 979120 960490 918950 858655 786983 712269 641816 579868 
2404.009 528544 488372 460310 446047 447606 465948 499882 544601 593803 
2408.348 640721 680609 711606 734838 751931 763117 765507 753890 723222 
2412.688 671748 604155 531961 472582 442564 454936 513052 609696 728134 
2417.027 846371 943820 1003728 1018175 988684 924362 839068 749010 670222 
2421.367 614773 590153 598415 635644 692987 758437 821108 871371 905336 
2425.707 924063 932862 938209 944750 952653 957834 952089 927118 878144 
2430.046 806269 719339 630468 554587 503995 485585 499020 538198 594035 
2434.386 656749 720002 780842 838868 894645 946842 992271 1025714 1042454 
2438.725 1040893 1023821 999411 977592 967763 975367 999145 1031792 1062083 
2443.065 1079555 1076831 1052783 1012064 963313 915762 875919 846404 826121 
2447.405 812045 801323 793024 788576 790767 801124 819016 840362 858356 
2451.744 865959 858456 835814 802551 767366 739916 727536 732847 752363 
2456.084 778153 800759 811713 807697 791165 769988 753856 752396 770917 
2460.423 809688 863635 923897 981943 1030331 1064940 1085135 1092742 1090982 
2464.763 1083109 1072380 1062117 1055341 1054876 1062748 1078824 1100449 
2468.620 1123104 1140777 1148917 1145761 1133867 1118653 1106827 1103339 
2472.478 1108986 1119616 1127356 1124366 1105066 1068926 1020733 968526 
2476.335 920809 882725 855368 836080 820676 806070 792991 785788 790900 
2480.675 814269 858456 921274 996987 1076466 1150611 1211810 1254309 1274546 
2485.014 1271655 1246633 1203071 1148784 1094337 1051123 1029633 1034914 
2488.872 1064674 1108687 1152538 1181475 1185296 1162438 1119383 1068527 
2492.729 1022626 990909 976430 976231 983902 993666 1003164 1014954 1034649 
2497.069 1068195 1119649 1188419 1269495 1354642 1435549 1503970 1554744 
2500.926 1585671 1597210 1591989 1574198 1548825 1519830 1490405 1461015 
2504.784 1430862 1398218 1362353 1325061 1291096 1266305 1256336 1263115 
2508.641 1283453 1310039 1333004 1344571 1341679 1326989 1306915 1289102 
2512.499 1277338 1269861 1259792 1237960 1197855 1138684 1066999 994064 
2516.356 934025 897733 890561 911479 954280 1009374 1066169 1115364 1147887 
2520.696 1157421 1140046 1097459 1036210 969622 915231 889797 905602 965338 
2525.035 1061585 1177256 1291528 1386916 1451374 1483656 1489673 1480896 
2528.893 1468661 1461247 1461480 1468362 1477139 1481960 1477505 1459319 
2532.750 1424147 1371693 1304821 1230716 1160578 1108986 1088889 1109218 
2536.607 1170744 1264477 1373089 1473947 1546731 1577324 1561162 1504968 
2540.465 1424147 1336827 1259393 1203171 1171442 1160943 1164332 1174133 
2544.322 1185495 1197257 1211976 1233940 1267036 1313130 1371527 1439804 
2548.180 1514743 1592688 1670813 1745225 1810834 1860978 1888599 1888133 
2552.037 1858283 1803913 1735944 1667786 1613307 1581348 1573566 1584673 
2555.895 1605990 1628439 1647064 1662663 1680392 1706138 1742963 1788542 
2559.752 1835290 1873923 1896353 1900679 1891893 1880545 1877950 1892592 
2563.609 1925905 1972368 2021067 2060050 2080757 2080658 2063046 2035448 
2567.467 2007186 1985250 1973467 1972102 1979525 1993871 2014476 2042006 
2571.324 2078227 2123941 2178184 2237763 2297117 2350716 2392860 2420081 
2575.182 2430576 2424446 2402555 2366707 2318769 2262010 2201229 2142954 
2579.039 2094707 2063845 2054790 2068572 2101333 2146783 2197299 2246623 
2582.896 2292121 2333926 2374136 2414350 2453535 2487891 2511518 2519250 
2586.754 2509186 2484458 2453068 2425012 2410218 2414883 2439673 2480726 
2590.611 2530082 2579342 2620942 2649811 2664012 2664279 2653978 2638110 
2594.469 2623776 2617709 2626142 2652344 2695451 2749766 2806322 2855481 
2598.326 2889102 2903812 2901677 2889635 2876861 2871891 2881163 2906880 
2602.184 2947344 2998254 3054075 3109035 3158128 3197447 3224818 3239306 
2606.041 3242177 3235801 3223783 3209797 3197647 3189936 3188935 3196579 
2609.898 3214203 3242344 3279767 3323136 3366110 3401172 3421410 3422645 
2613.756 3405714 3375893 3341801 3311083 3289282 3276562 3269284 3261238 
2617.613 3247785 3226721 3200718 3174516 3153589 3141173 3137569 3140139 
2621.471 3145145 3149951 3153188 3155458 3157961 3161232 3165271 3168909 
2625.328 3171412 3173615 3177119 3184262 3196212 3212434 3229859 3244714 
2629.186 3254461 3258868 3260704 3264577 3274358 3291318 3312452 3332585 
2633.043 3345240 3346342 3336492 3321233 3309781 3311284 3333086 3376728 
2636.900 3439144 3511756 3584413 3648062 3696280 3727326 3744403 3754029 
2640.758 3763788 3780533 3807473 3843441 3881953 3914315 3931267 3926185 
2644.615 3897231 3848221 3787585 3725020 3669681 3627613 3600650 3588155 
2648.473 3587521 3596307 3613046 3636902 3667041 3702061 3739591 3777157 
2652.330 3813022 3846516 3878375 3909835 3941063 3970689 3996136 4014295 
2656.188 4023123 4023023 4016769 4009011 4004363 4005801 4014629 4029712 
2660.045 4048908 4069878 4091385 4112323 4132059 4149420 4163203 4172403 
2663.902 4177822 4182439 4190736 4208066 4238111 4280907 4333178 4387966 
2667.760 4437807 4475835 4498768 4506435 4502082 4489963 4474864 4460168 
2671.617 4448786 4441824 4440150 4443196 4449757 4457088 4461708 4460637 
2675.475 4452368 4437706 4419998 4403731 4392886 4389138 4391548 4396334 
2679.332 4399079 4396635 4388502 4376854 4365642 4358614 4358145 4364270 
2683.189 4375114 4388100 4401087 4412567 4422542 4431045 4437940 4442794 
2687.047 4444803 4443865 4440016 4433924 4425655 4414676 4398911 4376218 
2690.904 4345360 4307176 4265247 4225597 4194784 4177588 4175681 4186754 
2694.762 4205523 4225363 4240420 4247078 4244602 4234163 4218170 4199200 
2698.619 4179428 4160861 4145306 4134635 4130086 4131758 4138749 4148483 
2702.477 4158352 4166280 4172235 4177454 4184747 4196523 4214189 4236706 
2706.334 4261399 4285659 4307343 4326552 4345260 4366780 4393924 4427597 
2710.191 4466797 4508577 4549424 4586090 4617769 4644928 4670315 4696205 
2714.049 4725279 4758509 4795460 4834357 4872856 4908644 4939944 4965549 
2717.906 4985759 5001914 5015724 5029903 5046831 5068151 5094702 5126082 
2721.764 5161220 5197937 5234121 5267256 5295194 5316191 5329172 5334136 
2725.621 5331855 5325013 5316929 5310757 5309416 5313306 5320719 5327730 
2729.479 5329205 5320585 5298380 5262259 5214034 5157599 5097116 5036372 
2733.336 4977648 4921680 4868165 4816232 4765343 4715699 4668305 4625169 
2737.193 4588434 4559838 4540719 4530607 4528063 4529369 4530105 4525853 
2741.051 4512729 4489360 4456988 4419965 4383916 4355099 4338433 4335521 
2744.908 4345126 4362897 4382946 4399313 4407647 4406041 4395731 4380034 
2748.766 4363768 4351786 4347435 4352187 4364772 4382075 4399514 4412467 
2752.623 4418158 4415413 4406375 4394794 4385757 4383113 4389004 4403028 
2756.480 4422542 4443162 4461541 4475601 4486113 4496089 4509514 4530306 
2760.338 4560508 4599551 4644259 4690210 4732079 4765745 4789362 4803266 
2764.195 4810034 4813551 4818108 4826953 4842332 4864413 4891856 4921982 
2768.053 4951741 4977983 4999032 5014015 5023701 5030003 5036204 5045322 
2771.910 5060843 5086086 5123098 5173090 5235831 5309583 5391063 5475881 
2775.768 5559104 5636334 5704749 5763370 5813536 5858201 5901325 5946704 
2779.625 5996858 6053065 6115228 6182206 6252286 6324127 6396483 6468650 
2783.482 6540088 6611236 6682362 6754778 6830336 6910790 6997891 7092183 
2787.340 7192964 7298014 7403764 7506774 7603875 7693679 7776586 7854279 
2791.197 7929388 8004341 8080759 8159722 8241064 8325021 8412407 8505249 
2795.055 8605988 8717465 8841110 8976495 9120652 9268444 9413476 9549988 
2798.912 9674108 9784809 9884353 9977579 10070045 10167279 10273493 10390184 
2802.770 10517939 10656021 10804031 10962014 11130592 11310357 11501423 
2806.145 11702479 11911359 12124734 12339714 12554085 12766923 12978602 
2809.520 13190419 13403706 13620107 13840789 14067162 14300399 14541948 
2812.895 14792616 15052002 15318100 15587830 15857486 16124388 16388219 
2816.271 16652623 16924424 17212666 17527214 17875720 18262242 18686118 
2819.646 19142714 19623952 20120508 20624060 21128232 21630308 22131256 
2823.021 22636066 23153170 23692652 24266548 24885762 25559626 26294870 
2826.396 27094942 27960268 28889968 29882314 30936844 32054726 33240012 
2829.771 34498852 35839068 37268848 38796520 40429620 42175128 44040424 
2833.147 46033364 48163824 50443724 52885292 55501476 58302796 61295848 
2836.522 64481452 67854880 71406272 75120968 78983304 82976320 87082464 
2839.897 91285888 95569736 99917584 104316344 108754160 113223816 117723088 
2843.272 122252112 126811576 131398960 136004992 140613920 145202368 
2846.166 149740272 154194896 158527392 162694384 166648064 170331904 
2849.059 173685424 176647488 179157200 181162784 182622448 183505536 
2851.952 183796080 183491584 182606864 181172960 179240896 176877216 
2854.845 174155264 171155200 167951024 164606048 161176784 157708576 
2857.738 154241968 150815600 147464096 144220672 141115184 138171104 
2860.631 135409008 132845912 130496576 128374192 126488912 124844424 
2863.524 123436000 122248952 121259040 120434208 119742192 119150832 
2866.417 118631592 118162032 117721000 117286664 116836384 116341464 
2869.310 115771416 115095368 114282976 113312112 112169368 110853696 
2872.203 109377680 107767744 106062136 104303368 102538656 100811456 
2875.096 99157792 97608496 96186136 94908784 93791640 92847008 92084152 
2878.471 91508680 91121024 90916896 90889152 91030392 91334216 91797400 
2881.847 92418392 93195304 94123496 95194208 96393720 97707624 99121408 
2885.222 100624400 102210584 103876736 105619904 107435408 109313712 
2888.115 111242424 113207216 115193816 117191744 119193992 121196496 
2891.008 123197616 125195936 127189504 129176112 131153256 133118000 
2893.901 135068528 137003104 138920880 140821776 142707632 144580640 
2896.794 146444784 148303056 150157744 152009872 153859952 155709344 
2899.687 157562336 159426608 161311760 163228816 165184848 167183536 
2902.580 169222240 171296784 173402384 175538848 177709968 179925392 
2905.473 182196928 184535136 186947504 189438224 192007856 194656304 
2908.366 197383936 200191744 203081824 206055872 209114672 212258080 
2911.260 215485088 218792976 222176544 225626816 229127888 232658032 
2914.153 236190640 239695072 243142720 246506160 249757408 252868896 
2917.046 255805040 258521648 260969632 263093200 264838016 266158128 
2919.939 267013728 267376192 267225744 266551472 265352912 263641600 
2922.832 261443440 258794160 255739696 252328752 248606016 244613792 
2925.725 240389520 235967648 231385488 226681248 221894208 217064896 
2928.618 212227968 207413248 202644400 197937232 193302368 188745584 
2931.511 184269008 179873200 175559104 171330368 167195120 163165616 
2934.404 159256512 155482704 151854912 148377744 145051248 141871456 
2937.297 138835248 135943040 133200032 130616832 128206760 125981720 
2940.190 123951496 122121952 120494904 119070320 117847504 116825456 
2943.083 116003192 115378480 114945792 114696064 114615816 114687424 
2945.976 114890408 115203528 115604216 116072104 116587336 117130952 
2948.869 117685504 118231800 118748512 119212872 119597904 119875008 
2951.762 120017648 120001048 119806984 119424816 118851448 118089704 
2954.656 117146664 116032408 114758544 113339160 111790784 110130384 
2957.549 108375688 106540936 104634800 102660472 100616672 98500208 96309672 
2960.924 94048520 91723776 89346448 86927088 84476000 82000736 79508384 
2964.299 77005608 74500736 72002072 69518304 67056812 64623460 62223856 
2967.674 59864932 57555820 55308332 53133896 51042108 49036820 47116012 
2971.050 45272572 43497712 41784904 40131952 38541576 37019304 35570748 
2974.425 34197264 32895974 31658624 30475896 29339096 28243062 27187034 
2977.800 26174142 25209184 24296122 23437706 22633062 21879562 21172066 
2981.175 20504448 19869766 19261120 18673250 18102652 17549430 17015624 
2984.551 16506668 16027702 15582918 15172970 14794706 14441640 14105016 
2987.926 13777853 13455105 13136183 12823843 12523084 12239265 11975626 
2991.301 11732673 11508092 11297264 11094525 10895586 10697722 10501136 
2994.676 10308540 10124069 9952016 9795484 9655406 9529768 9415034 9306085 
2998.534 9198755 9090537 8980791 8871410 8765607 8666623 8576382 8495282 
3002.391 8420987 8349914 8277265 8198214 8108744 8006839 7892270 7767411 
3006.249 7636551 7504617 7377408 7259670 7154293 7062041 6982133 6911900 
3010.106 6848210 6788197 6729639 6671393 6613053 6555225 6499020 6446487 
3013.963 6399711 6360942 6331523 6311250 6298206 6288423 6276355 6256690 
3017.821 6224992 6178610 6117849 6045102 5964070 5878956 5793623 5711061 
3021.678 5632810 5559809 5492155 5429612 5371237 5316292 5263936 5213866 
3025.536 5165445 5118371 5072006 5024841 4975268 4921848 4864077 4803601 
3029.393 4743435 4688166 4642618 4609463 4588367 4575910 4566668 4554681 
3033.250 4535998 4509716 4477777 4444435 4413304 4387096 4365876 4347870 
3037.108 4330702 4312497 4292753 4272240 4252532 4234531 4218572 4204118 
3040.965 4189564 4174109 4157382 4139552 4120853 4100884 4077939 4050413 
3044.823 4016435 3975404 3929261 3881652 3837658 3802326 3779397 3770105 
3048.680 3772846 3783608 3796677 3807273 3811150 3806805 3795073 3778895 
3052.538 3761950 3748280 3740159 3737485 3737352 3735113 3725287 3703164 
3056.395 3666406 3616019 3555884 3491982 3430894 3378398 3338262 3312118 
3060.252 3298997 3296360 3299798 3305207 3308813 3307678 3300933 3288847 
3064.110 3273123 3255062 3235667 3214170 3188568 3156893 3118413 3074763 
3067.967 3030251 2991981 2966126 2957452 2966659 2989479 3018339 3044532 
3071.825 3059480 3057912 3038158 3001590 2951581 2891570 2824898 2753934 
3075.682 2680882 2608775 2541180 2482759 2437874 2409552 2398957 2404421 
3079.540 2422113 2446337 2470796 2489524 2498321 2494889 2479726 2455667 
3083.397 2427511 2400023 2377634 2362276 2353015 2346418 2338290 2323766 
3087.254 2299449 2264908 2221377 2171524 2119013 2066941 2018337 1975630 
3091.112 1941182 1917186 1904639 1903108 1910064 1920680 1929566 1932162 
3094.969 1926271 1913658 1899348 1890429 1892525 1908400 1936156 1969839 
3098.827 2000395 2019303 2020501 2002559 1968541 1924973 1880246 1841479 
3102.684 1813362 1797558 1793100 1797691 1807839 1821182 1835024 1847169 
3106.542 1855055 1856187 1848267 1830166 1802516 1768047 1731087 1697024 
3110.399 1670114 1653084 1646266 1648328 1657076 1670480 1687810 1709664 
3114.256 1736476 1767815 1801451 1833293 1858150 1870795 1869264 1853225 
3118.114 1825740 1790904 1753043 1715419 1679627 1646998 1618961 1597776 
3121.971 1586037 1586502 1599306 1622386 1650756 1677498 1696458 1704076 
3125.829 1700683 1689273 1675835 1665657 1662431 1667154 1677831 1691668 
3129.686 1705672 1718080 1728459 1737574 1746290 1754607 1761926 1766950 
3133.543 1768280 1765053 1757268 1745891 1732418 1718379 1705340 1694462 
3137.401 1686080 1679793 1674638 1668850 1660867 1649359 1634259 1616466 
3141.258 1598441 1583310 1574165 1573233 1580782 1595548 1614870 1635523 
3145.116 1654947 1671844 1685947 1698421 1710229 1722138 1733449 1742331 
3148.973 1746223 1743429 1733116 1716949 1698155 1681456 1670646 1668484 
3152.831 1674371 1685381 1696857 1703843 1702878 1693331 1677332 1658373 
3156.688 1640978 1628506 1622386 1622685 1627641 1635091 1643007 1649592 
3160.545 1653051 1651721 1644570 1631033 1612010 1589695 1567547 1549191 
3164.403 1536622 1530836 1530504 1533330 1537121 1541144 1546398 1555177 
3168.260 1569509 1589927 1615635 1643772 1670879 1694495 1713489 1727528 
3172.118 1737507 1743030 1743296 1736776 1722637 1701381 1675469 1648561 
3175.975 1623949 1602731 1583775 1563823 1539914 1510853 1478469 1447949 
3179.833 1425477 1415570 1419559 1434818 1456427 1478968 1498484 1514211 
3183.690 1527711 1541543 1556939 1574065 1590958 1606256 1619692 1633395 
3187.547 1650357 1673008 1700749 1729457 1751945 1761028 1751180 1722172 
3191.405 1678330 1628106 1580716 1543173 1519531 1509224 1509224 1515308 
3195.262 1523820 1532333 1539349 1543804 1544137 1539149 1527378 1508725 
3199.120 1484753 1457923 1431793 1409254 1392866 1383227 1379836 1380867 
3202.977 1383958 1386651 1386318 1381099 1369931 1353079 1331841 1308477 
3206.834 1285181 1263447 1243775 1225599 1207457 1188319 1167521 1145295 
3210.692 1122639 1099917 1077064 1054278 1031394 1010138 993433 985629 
3214.549 990677 1010503 1043384 1084172 1125197 1158385 1177688 1180877 
3218.407 1170013 1150711 1129416 1112308 1103305 1103239 1111311 1125197 
3222.264 1142870 1161774 1180246 1196559 1208853 1215764 1216462 1210414 
3226.122 1198287 1180246 1156591 1127057 1091314 1049329 1002832 954978 
3229.979 910516 874657 851916 844745 853011 874359 905137 941496 979618 
3234.319 1015983 1047403 1071052 1084371 1086065 1076566 1058895 1038435 
3238.176 1020766 1011300 1012330 1022991 1038833 1054112 1063312 1062847 
3242.033 1052418 1034150 1012297 991009 973973 963778 961187 966268 978389 
3246.373 995559 1014356 1030231 1037571 1030896 1007714 968427 918717 867221 
3250.713 824461 799564 797705 819581 859950 911612 965671 1013725 1050857 
3255.052 1073975 1082279 1076566 1059160 1033187 1003529 976065 955941 
3258.910 947174 950395 961752 974670 981245 975766 956572 927018 894645 
3263.249 868582 855866 858921 874790 896703 915994 925026 920112 901651 
3267.589 873064 839267 805107 774071 748114 728233 715854 711572 716849 
3271.928 731718 755217 785390 818353 849724 875521 892653 899194 895010 
3276.268 881729 862606 841989 825423 817523 821573 837640 862772 892321 
3280.608 920079 941297 954048 958929 958697 956538 953948 950428 943322 
3284.947 929442 907627 879804 851218 828810 820178 829673 857393 898762 
3289.287 946477 991142 1024950 1042786 1043284 1028571 1003297 973408 945016 
3293.626 922735 909752 906764 912840 925358 941297 957535 971748 982540 
3297.966 989182 991839 990577 985230 976430 964741 951624 939072 929210 
3302.306 923399 922204 924694 929143 933759 937544 940068 942060 944750 
3306.645 948868 954413 961088 967597 973375 978356 983005 988983 997717 
3310.985 1010038 1026611 1046938 1069889 1093041 1113869 1128851 1134864 
3314.842 1129914 1113504 1087992 1057234 1026877 1002699 988983 987588 
3318.700 997717 1016149 1038867 1061718 1080917 1093141 1095997 1086232 
3322.557 1061984 1022293 968759 905768 840761 782634 739584 716650 715157 
3326.897 731851 761258 796111 830967 862639 890295 914899 938142 960224 
3331.236 981245 999843 1014489 1024452 1030032 1032091 1032589 1033254 
3335.094 1035246 1039697 1046805 1056736 1069125 1083242 1097293 1108820 
3338.951 1114500 1110713 1094735 1065804 1025515 978655 931833 893217 870076 
3343.291 866955 884286 918750 963446 1009507 1048299 1073609 1081880 1073244 
3347.630 1050392 1017743 979917 941728 907561 880634 863701 857958 862639 
3351.970 875056 890827 904207 910449 906930 893815 875122 856696 845442 
3356.310 845873 860149 886344 919049 951790 977194 989448 985795 966301 
3360.649 934124 895575 858257 829075 813771 814568 830038 854870 881729 
3364.989 903410 914201 912541 900721 884286 869478 862041 864299 875886 
3369.328 892752 909354 920610 922071 912043 890860 860780 825058 787448 
3373.668 752097 722093 700753 690432 692655 707822 735203 772245 814867 
3378.008 858257 896571 924960 940201 941429 930272 910914 888569 868183 
3382.347 853642 846570 847068 853708 864697 878044 892653 907328 920510 
3386.687 931103 938009 940666 940732 940533 942791 949897 961686 975600 
3391.026 986824 990411 982773 964940 940765 917854 903410 902016 913737 
3395.366 933892 954778 967597 965571 945846 910184 863237 811846 762520 
3399.706 719770 686184 662423 647955 642347 645400 657811 680476 713663 
3404.045 756213 804676 853708 896637 926587 939138 933460 912541 883157 
3408.385 853509 830403 817821 815332 818651 822668 821838 813705 798601 
3412.724 779116 758105 738323 721098 706727 696041 690863 693319 706329 
3417.064 730656 764279 801589 835416 858157 864764 854638 831266 801223 
3421.404 771216 746919 730225 720467 715090 711606 708486 705731 704404 
3425.743 706760 715124 730922 754852 786385 822801 859551 891424 912840 
3430.083 920012 912774 894678 872831 854970 846670 849392 859352 868449 
3434.422 867553 850787 816427 769224 717878 672578 640953 626320 626718 
3438.762 636474 648453 656715 658507 653828 645101 635213 626851 621210 
3443.102 618389 617527 618024 618754 619285 618688 615569 609198 598780 
3447.441 584811 569350 554587 543904 539558 542610 552961 568786 587532 
3451.781 606378 623101 636241 645665 652335 657611 663253 670188 678385 
3456.120 687976 697534 706329 713232 717878 719770 719239 716352 711141 
3460.460 703674 693850 681770 667301 651074 634084 617527 603690 594533 
3464.800 592011 596988 608701 624329 639891 650245 651837 643342 626419 
3469.139 606179 588162 577910 578275 589224 607738 629273 650444 669657 
3473.479 687777 707656 731751 761192 794053 826154 853044 870640 877878 
3477.818 876019 868515 859319 851252 845608 841823 838802 834652 829440 
3482.158 823465 818186 814203 811547 808460 803580 794916 782004 765706 
3486.498 748214 732415 721131 716219 718675 728001 742538 760163 777655 
3490.837 792327 801323 802452 795049 780079 760196 739120 721263 709813 
3495.177 706694 711108 720799 732581 742937 750371 754056 754421 751633 
3499.516 745957 736630 722857 704503 683496 663352 648917 645201 654094 
3503.856 673208 697036 717878 728731 726076 710212 685255 657512 632989 
3508.196 615602 605482 598879 590319 575024 551800 523833 497626 481173 
3512.535 480643 499451 536174 585840 641252 694481 739286 772179 792460 
3516.875 801721 803149 800028 794950 789838 784991 780245 775432 771216 
3521.214 768959 770884 779282 794551 814369 833955 847102 847932 834420 
3525.554 808626 776693 746820 727403 722657 731917 749475 766669 775631 
3529.894 771780 755383 730391 702645 677257 657412 643774 635379 630667 
3534.233 628443 628875 631894 638033 646495 656350 667169 679447 694580 
3538.573 714493 739684 768594 796908 818186 826419 818054 794053 758968 
3542.912 721463 690498 672246 667866 672777 678186 674436 655786 622670 
3547.252 581560 542146 513947 503033 510199 532027 561156 588826 606245 
3551.592 607606 591679 562549 527681 495470 472317 461072 461039 469862 
3555.931 484690 503332 525094 549610 576616 604653 630368 650045 660864 
3560.271 663253 660366 658507 663983 680576 707855 740779 771581 792327 
3564.610 797273 785688 763051 739617 725877 728233 744198 764810 779879 
3568.950 782336 770718 747119 715688 680808 647324 618788 599377 592476 
3573.290 600638 624661 662357 708619 755715 795182 820676 829573 823664 
3577.629 807497 787713 769556 756047 747417 741542 736265 730324 724350 
3581.969 720533 720600 725943 735004 744961 751566 750172 737726 713630 
3586.308 681173 647424 622338 613943 625192 653397 691461 732349 769590 
3590.648 798767 817855 826187 825058 817456 807730 800062 798966 806800 
3594.988 823863 848396 876948 905270 928479 941795 940931 922868 887274 
3599.327 837275 780477 726408 686118 667965 675000 705001 751334 805672 
3603.667 859087 905203 939072 957568 958963 942226 907727 856763 793522 
3608.006 724483 656881 597154 548980 512554 486348 469298 461570 465418 
3612.346 484524 521279 574194 637303 699990 751533 783630 791696 775465 
3616.686 739916 695078 654791 635976 652667 709747 800526 908457 1014655 
3621.025 1103472 1166591 1202573 1214933 1209783 1194433 1175827 1159049 
3624.883 1146757 1138419 1130944 1119118 1096861 1059393 1006086 944119 
3628.740 887606 852281 843848 857095 882194 911213 939603 966434 991872 
3633.080 1016946 1042055 1066402 1087593 1103173 1111311 1111311 1104833 
3636.937 1094968 1086065 1083209 1089753 1106993 1132804 1162139 1187987 
3640.794 1203304 1202706 1184067 1149780 1106162 1060589 1019969 988684 
3644.652 967231 953151 941164 924827 898198 858622 807663 753757 707889 
3648.991 681107 680609 707689 757242 821141 890030 955941 1011965 1053248 
3653.331 1074440 1071417 1041358 986293 914201 840794 783995 755416 755217 
3657.671 774004 799763 822303 837375 845906 852712 863602 882460 909819 
3662.010 942226 974139 999444 1014821 1019736 1016913 1010703 1005854 
3665.868 1005854 1012795 1027375 1048698 1074838 1101711 1123038 1131808 
3669.725 1123337 1098422 1064973 1032988 1009108 996123 992669 994695 997219 
3674.065 994164 982142 962947 944584 935685 939105 950030 960789 964807 
3678.404 959029 944020 924329 906233 896438 898563 912840 936814 966335 
3682.744 997053 1025947 1051455 1073510 1093440 1112872 1133269 1156624 
3686.601 1183734 1215399 1250654 1286842 1318314 1339087 1344205 1331675 
3690.459 1303725 1265009 1220648 1176026 1135827 1102840 1079788 1068295 
3694.316 1069324 1082877 1107059 1137920 1170013 1197490 1216229 1225034 
3698.174 1225965 1222542 1218622 1216296 1214900 1211378 1201709 1183602 
3702.031 1158784 1132140 1109717 1095167 1088424 1085800 1082046 1072513 
3705.888 1055142 1031527 1007149 990245 988352 1006086 1043948 1096429 
3709.746 1153933 1204965 1240851 1257532 1257300 1245437 1226696 1203470 
3713.603 1176392 1145495 1112540 1080751 1054975 1040295 1041490 1060755 
3717.461 1096961 1145030 1196958 1243975 1278135 1294054 1289368 1264776 
3721.318 1223307 1170545 1113504 1058729 1012164 977459 955841 947606 951159 
3725.658 964508 984732 1008644 1033287 1056404 1076267 1092144 1103571 
3729.515 1110414 1113105 1112706 1110780 1109617 1110913 1115098 1119550 
3733.373 1119815 1111212 1091148 1061419 1029966 1007149 999643 1006485 
3737.230 1019935 1030663 1030497 1016216 989049 955077 923133 901783 897069 
3741.570 911180 941363 981146 1021961 1053381 1068893 1071351 1072414 
3745.427 1083607 1110149 1150877 1201045 1254940 1306682 1349589 1377310 
3749.284 1384324 1368768 1333835 1286643 1237163 1194865 1166226 1154166 
3753.142 1158717 1177488 1208055 1247630 1293921 1344604 1396889 1447152 
3756.999 1490205 1520662 1532964 1522623 1488709 1434319 1367704 1299803 
3760.857 1242280 1203171 1185163 1186758 1202706 1226098 1248128 1261586 
3764.714 1261586 1248660 1229022 1211644 1204567 1211145 1230118 1255339 
3768.572 1278800 1291628 1288504 1270426 1243576 1216362 1195031 1181841 
3772.429 1175395 1172837 1171541 1170611 1171375 1176558 1188785 1209351 
3776.286 1236731 1266704 1293323 1310039 1311435 1295117 1262650 1219319 
3780.144 1171508 1124034 1079223 1038003 1000075 967464 943123 931202 935320 
3784.483 955974 989647 1028704 1064807 1090550 1101711 1098555 1084504 
3788.341 1065471 1047602 1036575 1035645 1045908 1065903 1093207 1124632 
3792.198 1157023 1188120 1215166 1235435 1245802 1242945 1224669 1191974 
3796.056 1151176 1112175 1085966 1080086 1096363 1131575 1178884 1229886 
3799.913 1274447 1302395 1306583 1287773 1254841 1220449 1194300 1179581 
3803.771 1174797 1177355 1184399 1192871 1199516 1200580 1192340 1173834 
3807.628 1147920 1120712 1099319 1089885 1096828 1122207 1164797 1219984 
3811.485 1280395 1336660 1379570 1401841 1398085 1365643 1305552 1224935 
3815.343 1138618 1065704 1022260 1011832 1026578 1051953 1075204 1086265 
3819.200 1079987 1057400 1028205 1008942 1016016 1056038 1120978 1196393 
3823.058 1269396 1333503 1386119 1426906 1455562 1471521 1473715 1461946 
3826.915 1438807 1409055 1379039 1354409 1338621 1331442 1329714 1327554 
3830.772 1318381 1297045 1262916 1220582 1178352 1144797 1127024 1127954 
3834.630 1147422 1181608 1225300 1271356 1312565 1342477 1356436 1353777 
3838.487 1337525 1315057 1295449 1286610 1293256 1315922 1351185 1392733 
3842.345 1433488 1466600 1487246 1494627 1491502 1481628 1469393 1457191 
3846.202 1445356 1432757 1417698 1398916 1376479 1352149 1328385 1308809 
3850.060 1297178 1296214 1309042 1338023 1383659 1443062 1505433 1555110 
3853.917 1579086 1574929 1547096 1503139 1448348 1387614 1325693 1268033 
3857.774 1220615 1188386 1174598 1180046 1202507 1237694 1278800 1318713 
3861.632 1350919 1370895 1377410 1372191 1359561 1344305 1331376 1324164 
3865.489 1323898 1329648 1339419 1350454 1358796 1361389 1354143 1334334 
3869.347 1302761 1265109 1229819 1203304 1187721 1180744 1179548 1181143 
3873.204 1184033 1188353 1195330 1205696 1220482 1239555 1262351 1289202 
3877.062 1320475 1356669 1397952 1442431 1486581 1523455 1546398 1550621 
3880.919 1536755 1509224 1474612 1437378 1399448 1359860 1317517 1272752 
3884.776 1229753 1195994 1179316 1182738 1202241 1228922 1253013 1267269 
3888.634 1267335 1252681 1226031 1194400 1167554 1154332 1159780 1182804 
3892.491 1217691 1257067 1296513 1333503 1367206 1397254 1422451 1440104 
3896.349 1446420 1437511 1410052 1363716 1302262 1233474 1167754 1115596 
3900.206 1082976 1071151 1075469 1089221 1105498 1119284 1128785 1135429 
3904.063 1141774 1150279 1162172 1176624 1192273 1207889 1223473 1239987 
3907.921 1259426 1283419 1313163 1349157 1390107 1433920 1477970 1518833 
3911.778 1553248 1578421 1592189 1593519 1582711 1561362 1532998 1502142 
3915.636 1474147 1453767 1443129 1440802 1443761 1447152 1447850 1445157 
3919.493 1440636 1436114 1432857 1430230 1425809 1417066 1401808 1380268 
3923.351 1355240 1331442 1313628 1305087 1305685 1312100 1320441 1327454 
3927.208 1331243 1331409 1328219 1321638 1311435 1296679 1277803 1256834 
3931.065 1238093 1226928 1227593 1241482 1266139 1296048 1325992 1351418 
3934.923 1371294 1386285 1398318 1408756 1417432 1422418 1422019 1414772 
3938.780 1402008 1387049 1374684 1369964 1376014 1393365 1419260 1448647 
3942.638 1475444 1495093 1505300 1506464 1500246 1489008 1473781 1455596 
3946.495 1434253 1409088 1380202 1347462 1311967 1275809 1242845 1217093 
3950.353 1203570 1206427 1227726 1267501 1322701 1388047 1457258 1523455 
3954.210 1581381 1626942 1657408 1672176 1671411 1656510 1629803 1595182 
3958.067 1557139 1520362 1489640 1467631 1455197 1450675 1451241 1452604 
3961.925 1451340 1445423 1435250 1422485 1410252 1401642 1398916 1403171 
3965.782 1414241 1430264 1449179 1468495 1486182 1500612 1511219 1517403 
3969.640 1518467 1514045 1503339 1486415 1464206 1439372 1415803 1397786 
3973.497 1389476 1393332 1409553 1436247 1469758 1506165 1541809 1573300 
3977.354 1599139 1617131 1626211 1625346 1614537 1594849 1568744 1539748 
3981.212 1511152 1485950 1465503 1449745 1438076 1429366 1423382 1420324 
3985.069 1420789 1424812 1432391 1443062 1456660 1474247 1497387 1527644 
3988.927 1565053 1606955 1647397 1678995 1695028 1691968 1671744 1641277 
3992.784 1610945 1590426 1586602 1600669 1628007 1659504 1685581 1698953 
3996.642 1696059 1678862 1652785 1625512 1604095 1593885 1597011 1612409 
4000.499 1635689 
##END=
