##TITLE=ma_0 31 12:43:32 2026 (GMT+02:00)
##JCAMP-DX=5.01  $$ Nicolet v. 970
##DATATYPE=INFRARED SPECTRUM
##ORIGIN=Vojna akademija
##OWNER=Nicolet
##LONGDATE=2026/08/31
##TIME=12:43:56
##SPECTROMETER/DATA SYSTEM=Nicolet iS20
##DATA PROCESSING=
Ratio against background
%Transmittance->Absorbance
Truncated
ElementMultiply or ElementDivide
##COMMENTS=
Number of sample scans: 8
Collection length: 11,90 sec
Sample gain: 8,0
Background collected on: Mon Aug 31 12:42:55 2026 (GMT+02:00);
Number of background scans: 8
Background gain: 8,0
Sample spacing:  1,000
Number of scan points: 12415
Resolution points: 8286
Number of FFT points: 65536
Apodization: N-B strong;
Phase correction: Mertz;
Laser frequency: 15798,00 cm-1
Number of rejected sample scans: 0
Number of rejected background scans: 0
Bench serial number: BER2010005;
##RESOLUTION= 4,000
##XUNITS=1/CM
##YUNITS=ABSORBANCE
##FIRSTX=400.156891
##LASTX=4000.123047
##FIRSTY=-0.000293
##MAXX=4000.123047
##MINX=400.156891
##MAXY=0.231736
##MINY=-0.006516
##XFACTOR=1.000000
##YFACTOR=1.000000E-009
##NPOINTS=7468
##DELTAX=0.482117
##ZPD=6100
##XYDATA=(X++(Y..Y))
400.157 -292971 1774036 3425885 4168522 3850394 2692984 1129515 -344093 
404.014 -1369983 -1824795 -1817107 -1626317 -1568744 -1876198 -2600147 
407.389 -3632262 -4758031 -5747566 -6384783 -6515561 -6075963 -5090026 
410.763 -3673136 -2001580 -313169 1154299 2196833 2701286 2691884 2314572 
414.620 1773903 1227859 753790 319098 -186239 -898261 -1872173 -2964204 
418.477 -3743538 -3698269 -2611642 -748382 1396024 3393225 5012473 6196826 
422.334 6960685 7355098 7436660 7263714 6900320 6426747 5944151 5553164 
426.191 5347252 5394620 5720998 6307485 7085144 7951188 8767669 9384425 
430.048 9657032 9453366 8695323 7386676 5634622 3627379 1602764 -197467 
433.905 -1581685 -2402815 -2578738 -2104174 -1066235 360714 1952398 3461955 
437.762 4683645 5464271 5702735 5366239 4491837 3201619 1677897 162022 
441.619 -1104244 -1945837 -2277681 -2134212 -1633447 -937409 -185047 523369 
445.476 1127556 1601600 1942912 2172923 2336691 2497455 2714622 3020408 
449.333 3409254 3840366 4258120 4612946 4887231 5104223 5311327 5539270 
453.190 5769615 5920873 5883994 5559238 4912163 4000517 2994684 2142987 
457.047 1696857 1811533 2439573 3342636 4208969 4816433 5065033 4961527 
460.904 4562014 3927689 3111304 2163266 1160843 212573 -547360 -977810 
464.761 -979099 -514101 359819 1497387 2668180 3622100 4172436 4236037 
468.617 3858585 3176151 2378501 1645967 1124998 912342 1033121 1435449 
472.474 2000295 2590109 3090113 3453972 3704233 3899939 4092288 4295564 
476.331 4474931 4564894 4504995 4284421 3966041 3679872 3577565 3761883 
480.188 4254540 4972252 5760516 6436264 6869888 7026143 6962065 6778773 
484.045 6559430 6319958 6006365 5531316 4845448 3983697 3075664 2303013 
487.902 1829933 1758666 2078827 2676315 3366477 3974401 4383481 4565697 
491.759 4571791 4491804 4403463 4335086 4268761 4162601 3988111 3750353 
495.616 3492182 3274959 3155925 3156660 3252992 3379533 3459884 3424683 
499.473 3236468 2898808 2458866 1996834 1605358 1369432 1331376 1480896 
503.330 1756670 2072900 2339889 2485091 2472595 2303280 2017971 1681889 
507.187 1375283 1162305 1073643 1101279 1206726 1341579 1464439 1559566 
511.044 1637319 1730322 1874589 2096505 2395292 2744731 3096587 3401473 
514.901 3624873 3760212 3832677 3890578 3981222 4120050 4279201 4389807 
518.758 4379063 4198497 3860256 3435537 3038492 2779210 2729026 2902944 
522.615 3258735 3713958 4171968 4557862 4827188 4973928 5018338 4988575 
526.471 4903182 4766716 4578489 4344624 4087973 3849258 3674693 3607733 
530.328 3675562 3878409 4190167 4563454 4943765 5272153 5497792 5582093 
534.185 5503967 5269704 4918362 4519692 4153000 3891581 3779096 3818638 
538.042 3975136 4191773 4415313 4610033 4767721 4900200 5021322 5131279 
541.899 5208433 5214369 5112202 4880463 4525887 4078173 3584881 3094018 
545.756 2643043 2257947 1954561 1744094 1639448 1652053 1786113 2030354 
549.613 2358811 2732361 3113941 3481327 3828566 4160359 4477810 4765644 
553.470 4990217 5109788 5090981 4929019 4652765 4318286 3982861 3692303 
557.327 3463691 3289081 3149117 3032920 2949045 2926027 2996585 3179055 
561.184 3463157 3809746 4160493 4460704 4680027 4814422 4880195 4893498 
565.041 4856036 4748962 4541321 4209003 3756736 3228624 2707354 2284426 
568.898 2039443 2007352 2167362 2448570 2755935 3004192 3133864 3132096 
572.755 3029350 2891003 2792516 2802120 2962456 3275594 3700925 4163470 
576.612 4582038 4887365 5047903 5072274 4999769 4879692 4754690 4649785 
580.469 4567539 4494348 4412434 4311292 4192575 4067604 3948854 3845781 
584.326 3761449 3696447 3654778 3646491 3684751 3777224 3915753 4070246 
588.182 4192342 4234063 4162902 3980018 3722012 3453037 3237103 3110837 
592.039 3067288 3057111 3012133 2875126 2630442 2309142 1980756 1723037 
595.896 1603030 1649259 1846836 2146683 2487957 2819161 3106332 3338562 
599.753 3519272 3656448 3754998 3814627 3831608 3804799 3736951 3637202 
603.610 3517702 3392223 3273223 3170244 3091548 3042129 3023577 3030651 
607.467 3050137 3060348 3036123 2956818 2812658 2610575 2372537 2132532 
611.324 1925040 1775733 1696159 1681490 1714986 1774369 1841379 1904107 
615.181 1958422 2007319 2055921 2108625 2166429 2227306 2287524 2342721 
619.038 2389095 2423280 2441206 2436941 2403888 2335891 2230669 2093076 
622.895 1936722 1782154 1650656 1559101 1511518 1497587 1494694 1479799 
626.752 1438541 1375515 1315390 1297676 1361389 1530371 1803747 2152843 
630.609 2530781 2884232 3174482 3384976 3523681 3611843 3675929 3733542 
634.466 3789023 3837491 3872224 3893319 3910838 3941899 4002958 4101385 
638.323 4232022 4376921 4511490 4613482 4665927 4658626 4587831 4451598 
642.180 4249755 3987108 3678202 3349147 3036023 2778777 2605242 2522583 
646.036 2511752 2534747 2545812 2510485 2418182 2285259 2147749 2043271 
649.893 1998564 2016673 2079326 2157105 2225674 2275333 2316071 2371271 
653.750 2468763 2626442 2845509 3106332 3375092 3612778 3781837 3858986 
657.607 3837992 3731938 3568979 3388583 3231928 3128491 3089246 3101793 
661.464 3133864 3141741 3088378 2955484 2751367 2505220 2255415 2035015 
665.321 1860146 1729756 1631665 1555177 1508359 1531701 1681656 1984617 
669.178 2401856 2857783 3280334 3624639 3866073 3997674 4029544 3986639 
673.035 3903249 3811953 3735012 3678870 3636801 3599013 3560293 3523414 
676.892 3494787 3477285 3464526 3441214 3391555 3308612 3202987 3101693 
680.749 3040894 3049503 3135433 3281937 3453705 3608134 3709848 3742498 
684.606 3710048 3630319 3524416 3409755 3299197 3204256 3143510 3141741 
688.463 3223149 3400805 3662931 3969017 4254172 4452837 4514470 4425823 
692.320 4216229 3951997 3713356 3567476 3556719 3684985 3926620 4236806 
696.177 4573700 4907974 5228588 5539270 5850409 6170409 6500163 6832793 
700.034 7156348 7456816 7720188 7935867 8098515 8209795 8282264 8338126 
703.890 8407069 8516198 8683998 8913448 9192054 9497254 9806396 10107010 
707.747 10400297 10699080 11020941 11379739 11779857 12217523 12686947 
711.122 13188404 13732435 14337519 15021166 15791062 16636821 17532560 
714.497 18443808 19345226 20230468 21116892 22036328 23023600 24098258 
717.872 25254696 26457216 27646728 28755806 29713748 30464166 30968478 
721.247 31207874 31186978 30933074 30493348 29923382 29282096 28619494 
724.621 27966948 27338742 26733992 26143034 25555516 24966964 24379386 
727.996 23799810 23235934 22692862 22171912 21671336 21189564 20727164 
731.371 20288272 19880136 19510888 19186554 18910360 18681760 18498090 
734.746 18356178 18253880 18189194 18158618 18154230 18161140 18157200 
738.121 18117092 18015816 17836052 17574582 17244072 16871546 16493522 
741.496 16148254 15862333 15647491 15498508 15398047 15323489 15255293 
744.870 15180999 15095431 14997190 14884192 14750827 14589678 14396016 
748.245 14173853 13937538 13711745 13522644 13387817 13308786 13268678 
751.620 13238035 13181915 13074305 12905277 12684423 12435038 12187806 
754.995 11972152 11808150 11706564 11667727 11684098 11740400 11815912 
758.370 11886805 11925696 11909520 11823812 11668646 11459509 11225854 
761.744 11004254 10826280 10715110 10679485 10714294 10804811 10931670 
765.119 11076239 11220517 11350488 11453419 11518300 11537829 11509827 
768.494 11438485 11333041 11205726 11066994 10922563 10774343 10621522 
771.869 10464715 10308032 10159953 10031591 9933438 9872489 9850491 9864862 
775.726 9911098 9984123 10079303 10190922 10308846 10417130 10494211 
779.101 10515359 10461490 10324319 10111012 9842458 9549751 9265195 9012758 
782.958 8804625 8638130 8500418 8373491 8243562 8105200 7963370 7829448 
786.815 7715635 7628356 7563481 7506774 7438413 7341989 7210752 7053285 
790.671 6892510 6761172 6689529 6696561 6782610 6929137 7101883 7260311 
794.528 7371443 7415021 7391327 7318333 7227192 7152036 7120408 7149038 
798.385 7239118 7378487 7545410 7717693 7877256 8014601 8130383 8233128 
802.242 8334039 8441021 8556038 8672168 8777576 8859405 8911419 8938205 
806.099 8955828 8987150 9054910 9173915 9344610 9553036 9774642 9983478 
809.956 10157376 10285367 10369279 10420897 10455347 10487626 10526901 
813.331 10574124 10620843 10648516 10632862 10544757 10359506 10065976 
816.706 9674141 9220246 8761888 8370518 8105165 7999785 8048421 8208276 
820.563 8406900 8566142 8629443 8573983 8420379 8220161 8041603 7941435 
824.420 7949568 8060337 8236775 8421359 8553808 8591083 8512515 8325089 
828.277 8057164 7752367 7455434 7202768 7017118 6903349 6851273 6839828 
832.133 6845752 6848277 6834678 6803915 6764436 6731086 6719342 6741518 
835.990 6802232 6897492 7015030 7138967 7251281 7335687 7380947 7381452 
839.847 7338552 7260950 7163960 7067564 6992469 6957722 6976543 7052309 
843.704 7178209 7338147 7508359 7662180 7777801 7840143 7844731 7798918 
847.561 7719379 7627716 7543724 7482739 7450244 7441817 7447109 7454592 
851.418 7456345 7451558 7446704 7452603 7479806 7532599 7606876 7689396 
855.275 7762216 7806103 7807790 7763363 7680054 7573934 7467907 7386912 
859.132 7352369 7378520 7469221 7615947 7797905 7986623 8152058 8266728 
862.989 8314787 8295029 8222153 8121167 8022330 7952537 7926081 7943898 
866.846 7991752 8046430 8079543 8067121 7994891 7860994 7677322 7467165 
870.703 7262534 7094675 6990988 6967486 7026513 7156954 7336597 7539948 
874.560 7739448 7914237 8050413 8141592 8186565 8186935 8145778 8066818 
878.417 7957330 7828740 7696849 7581823 7503842 7478154 7513348 7607247 
882.274 7747341 7911538 8074953 8211551 8299961 8328230 8293509 8204020 
886.131 8075730 7930232 7789641 7670712 7583341 7527643 7496122 7475356 
889.987 7452131 7415055 7358738 7284199 7198792 7113873 7042475 6998227 
893.844 6991459 7028231 7108215 7224463 7363220 7504887 7629233 7715804 
897.701 7750242 7726799 7649500 7530744 7387856 7239994 7102725 6985466 
901.558 6891196 6817445 6759422 6713016 6677382 6655848 6652954 6671460 
905.415 6708675 6754879 6795500 6813540 6798597 6749461 6678660 6607401 
909.272 6561044 6559935 6610698 6703830 6815930 6918735 6986745 7007925 
913.129 6987553 6947756 6917893 6926174 6990146 7110269 7269576 7437570 
916.986 7581216 7670915 7689598 7636955 7528924 7392709 7259940 7162242 
920.843 7120105 7141291 7218702 7335149 7467131 7591939 7693780 7765151 
924.700 7806879 7825501 7830055 7828976 7829077 7837309 7861162 7908096 
928.557 7983923 8088489 8212496 8337214 8439366 8496059 8494640 8438961 
932.414 8350319 8260852 8203650 8202028 8259434 8358528 8464569 8539581 
936.271 8550969 8482679 8339241 8142504 7923753 7713983 7539578 7414717 
940.128 7344045 7324971 7352807 7423178 7533239 7679953 7856033 8047511 
943.985 8234343 8390516 8491971 8522516 8478760 8372917 8231811 8091696 
947.841 7986556 7943089 7972549 8070024 8217291 8389266 8563236 8721082 
951.698 8855009 8964892 9055384 9131378 9194965 9244682 9276500 9285436 
955.555 9268004 9223867 9155843 9070406 8976563 8886155 8812334 8767669 
959.412 8762226 8799824 8877430 8983903 9103700 9218113 9310216 9368749 
963.269 9389267 9374132 9331848 9275044 9217403 9172730 9152290 9162443 
967.126 9203290 9267090 9340751 9407111 9450081 9459393 9433014 9377045 
970.983 9302734 9222987 9146774 9077647 9015532 8958804 8908138 8868062 
974.840 8845338 8846284 8872459 8919096 8974364 9023583 9053760 9056061 
978.697 9028184 8972402 8891769 8787077 8656618 8497208 8307864 8094329 
982.554 7869192 7650174 7457929 7309167 7212941 7170091 7173897 7212908 
986.411 7275237 7351560 7435210 7521271 7604718 7678570 7734388 7764004 
990.268 7761609 7726597 7664439 7586477 7505999 7437166 7390586 7370803 
994.125 7376397 7400966 7435615 7471311 7502021 7525451 7543219 7559166 
997.982 7577170 7598919 7622792 7643295 7653007 7645251 7617329 7572450 
1001.839 7520496 7476738 7457828 7477008 7540083 7642216 7767411 7890955 
1005.695 7986791 8032220 8013994 7932290 7800065 7639518 7474379 7326589 
1009.552 7209303 7125763 7071336 7037323 7014458 6995803 6978227 6961257 
1013.409 6946746 6937352 6937453 6952705 6989641 7054060 7148162 7267521 
1017.266 7399382 7524575 7620870 7667778 7654052 7579396 7454929 7297947 
1021.123 7128188 6961627 6807078 6669037 6549944 6453650 6388043 6364204 
1024.980 6393087 6481026 6625534 6812463 7017084 7210314 7362479 7452772 
1028.838 7474682 7437705 7363490 7281167 7219544 7196097 7214053 7259940 
1032.695 7310684 7340439 7331138 7279718 7199230 7114042 7049783 7026580 
1036.553 7050153 7112930 7196670 7282077 7352166 7397360 7413167 7397259 
1040.410 7344449 7247575 7099828 6900892 6662981 6413700 6188424 6025649 
1044.267 5954934 5988560 6119059 6321672 6563130 6806607 7021361 7186934 
1048.125 7291073 7329790 7304315 7220319 7087940 6920990 6736841 6552131 
1051.982 6381721 6236118 6120974 6038988 5992692 5985268 6021719 6105584 
1055.840 6237732 6412119 6616047 6830000 7030689 7197175 7312200 7365511 
1059.697 7354795 7284738 7166217 7015872 6855716 6709281 6597981 6538171 
1063.555 6535211 6582372 6660996 6746263 6810780 6832693 6802939 6725399 
1067.412 6617796 6505309 6416793 6375131 6391674 6462563 6569824 6683438 
1071.269 6769417 6799135 6754508 6634685 6455702 6249093 6052763 5902937 
1075.127 5829958 5850174 5964843 6159251 6406066 6665504 6891567 7043283 
1078.984 7085751 7003480 6804486 6523304 6213867 5938877 5757763 5706831 
1082.842 5794094 5995682 6265766 6543721 6771907 6910587 6941426 6871335 
1086.699 6725769 6543620 6364607 6223345 6143927 6135727 6193566 6300459 
1090.557 6434011 6568916 6683304 6762787 6799842 6794019 6748754 6669878 
1094.414 6563130 6435625 6297568 6161772 6044027 5959502 5917078 5917145 
1098.271 5948551 5992423 6024642 6023768 5976601 5881139 5746179 5588404 
1102.129 5429645 5289627 5186939 5135470 5143718 5214704 5344367 5522759 
1105.986 5731675 5947208 6143457 6294374 6381822 6397929 6348065 6248723 
1109.844 6125881 6009591 5925374 5891820 5914088 5983689 6079307 6174745 
1113.701 6244488 6269666 6243916 6173804 6076081 5970722 5877143 5807861 
1117.558 5767399 5753935 5761926 5786908 5826465 5881442 5954698 6048261 
1121.416 6161100 6287650 6417399 6537532 6634080 6695686 6716415 6697167 
1125.273 6646528 6578941 6512070 6461856 6436903 6436500 6451027 6464446 
1129.131 6461520 6434986 6388850 6338348 6304022 6305569 6353074 6443730 
1132.988 6561852 6685289 6791832 6866454 6905605 6916849 6914998 6915098 
1136.846 6929642 6964557 7019139 7087839 7162276 7234166 7294981 7339866 
1140.703 7367230 7381284 7392102 7414448 7464974 7555895 7691757 7866122 
1144.560 8062936 8259299 8433149 8568644 8659289 8707729 8722908 8714828 
1148.418 8690421 8653103 8604196 8546036 8484976 8431866 8399536 8400313 
1152.275 8440346 8517583 8620690 8733828 8838202 8918115 8964183 8974026 
1156.133 8950991 8902118 8836072 8760097 8679604 8598011 8516705 8436832 
1159.990 8360013 8288072 8223943 8170290 8128729 8099629 8081771 8072657 
1163.848 8068472 8065231 8059392 8048286 8031241 8009607 7987399 7969749 
1167.705 7962459 7969377 7990065 8018820 8044878 8054666 8034718 7975958 
1171.562 7876851 7743495 7587218 7422301 7261288 7112088 6978260 6860631 
1175.420 6759624 6677584 6618805 6587452 6585366 6609823 6652719 6702719 
1179.277 6748182 6779749 6792707 6787692 6768778 6742326 6714564 6692995 
1183.135 6684515 6696056 6732836 6795467 6878270 6967620 7045741 7093598 
1186.992 7097370 7054262 6973176 6873254 6775273 6697840 6649825 6630648 
1190.849 6631388 6641650 6652820 6662106 6671796 6686332 6708675 6738153 
1194.707 6770259 6798967 6820137 6832861 6839660 6844776 6850903 6857971 
1198.564 6862314 6859452 6846392 6824143 6798025 6774937 6762114 6762686 
1202.422 6775812 6796375 6818859 6837977 6851980 6862179 6870864 6880088 
1206.279 6890052 6897727 6898636 6888066 6861708 6817849 6756864 6681554 
1210.137 6596972 6510725 6433069 6373921 6342551 6344602 6379503 6439829 
1213.994 6512911 6583482 6637881 6667860 6672637 6657867 6632667 6606223 
1217.851 6584222 6568613 6556705 6544932 6530569 6513483 6495690 6479983 
1221.709 6468482 6461083 6456374 6453146 6452305 6457787 6475611 6510792 
1225.566 6564644 6631825 6701138 6756561 6783821 6773927 6726644 6651507 
1229.424 6564005 6483044 6423284 6393490 6394701 6422308 6469289 6529089 
1233.281 6598822 6677449 6765850 6862246 6961425 7054901 7131489 7181511 
1237.139 7200173 7189562 7158302 7119060 7085077 7065813 7064634 7079486 
1240.996 7104174 7133274 7163084 7194851 7232717 7281875 7344449 7418054 
1244.853 7494537 7564021 7616453 7646229 7653142 7642586 7622927 7601987 
1248.711 7585532 7575687 7572214 7573900 7581352 7596525 7621848 7658302 
1252.568 7703325 7751051 7793520 7824118 7840615 7846689 7851411 7865009 
1256.426 7895172 7943055 8001979 8058446 8096422 8103275 8072725 8007142 
1260.283 7917206 7818214 7725754 7652535 7607382 7593928 7612204 7658504 
1264.141 7726361 7807081 7890989 7970491 8040287 8100136 8153442 8206654 
1267.998 8266289 8336201 8416866 8504709 8593348 8674804 8742854 8791946 
1271.855 8819368 8824676 8809765 8778962 8738223 8696979 8665272 8652765 
1275.713 8666725 8709723 8778488 8864917 8958365 9046859 9120009 9170970 
1279.570 9196419 9196318 9174930 9139601 9099842 9066617 9050175 9057550 
1283.428 9090605 9145251 9213477 9284725 9350569 9407144 9456345 9504129 
1287.285 9558422 9625932 9708802 9805279 9909911 10016672 10119558 10214361 
1291.142 10297853 10367515 10421610 10459759 10484232 10500695 10518380 
1294.518 10548254 10599180 10676430 10778453 10898644 11026515 11151262 
1297.893 11264822 11362359 11442125 11503567 11546200 11569135 11572061 
1301.268 11556783 11528098 11493666 11462129 11440390 11432191 11437158 
1304.643 11452161 11472709 11495844 11520068 11545315 11571721 11598605 
1308.019 11623448 11643800 11656904 11661464 11656631 11641247 11611809 
1311.394 11563282 11489414 11385896 11254110 11102412 10943563 10792855 
1314.769 10662473 10557896 10477749 10416485 10366973 10323741 10285605 
1318.144 10253747 10231324 10219213 10215346 10214599 10211817 10203472 
1321.520 10190108 10175725 10165686 10165176 10175996 10196315 10221384 
1324.895 10245469 10263586 10274036 10277836 10279023 10282551 10294222 
1328.270 10319738 10363409 10429009 10518278 10630451 10761606 10904691 
1331.645 11050645 11189883 11315356 11424198 11518979 11606262 11696012 
1335.021 11799229 11925117 12081124 12270791 12494165 12745426 13014245 
1338.396 13284495 13534949 13745841 13904282 14009633 14072706 14111622 
1341.771 14143490 14178749 14220277 14264581 14304987 14335704 14356116 
1345.146 14371904 14394817 14437598 14510429 14617675 14756038 14915431 
1348.522 15082292 15244002 15390391 15516364 15620974 15706817 15778624 
1351.897 15842229 15904846 15973041 16053384 16149526 16261891 16388150 
1355.272 16525427 16673179 16835412 17021516 17242728 17508896 17824314 
1358.647 18186016 18585920 19018212 19485590 20007004 20615966 21354886 
1362.023 22252958 23303088 24451590 25611502 26695126 27638040 28412046 
1365.398 29016622 29467408 29791564 30027722 30228696 30455674 30776904 
1368.773 31249282 31906176 32758716 33802392 35034308 36466444 38134524 
1372.148 40090452 42377056 44990600 47832952 50698312 53328552 55487320 
1375.524 57041492 57963736 58278964 58015616 57183624 55786740 53855936 
1378.899 51478824 48801740 45985328 43180000 40488648 37961856 35620196 
1382.274 33466924 31497634 29701012 28052476 26511592 25024454 23538262 
1385.649 22013982 20446444 18874160 17369238 16005974 14827756 13833366 
1389.025 12992463 12268372 11632569 11068829 10569234 10127698 9734995 
1392.400 9378737 9045708 8728215 8426866 8151551 7916329 7730206 7593659 
1396.257 7499257 7438244 7402921 7386946 7381149 7373499 7349942 7301586 
1400.115 7230123 7147590 7069955 7010518 6976644 6967385 6975937 6992705 
1403.972 7010889 7029611 7053521 7086929 7128222 7167733 7193571 7196771 
1407.829 7178546 7150925 7133779 7146175 7198287 7285480 7391597 7495346 
1411.687 7582363 7651861 7714286 7783906 7868956 7966441 8063308 8143753 
1415.544 8197335 8225733 8244846 8281925 8364168 8509574 8714388 8953494 
1419.402 9194186 9417167 9622071 9818496 10015214 10214735 10415637 10618262 
1423.259 10828896 11061624 11330966 11645127 11999026 12379328 12773577 
1426.634 13179626 13611252 14095569 14665756 15348821 16152104 17058182 
1430.010 18032292 19038498 20053602 21069380 22085514 23102252 24115456 
1433.385 25122006 26128888 27159096 28258656 29487124 30891732 32456722 
1436.760 34086144 35647136 37049180 38286992 39417808 40516076 41649072 
1440.135 42858716 44158040 45531168 46946568 48369148 49771692 51144116 
1443.511 52488504 53813744 55129944 56447468 57780052 59147304 60572316 
1446.886 62070892 63639864 65250724 66861132 68439624 69988888 71544240 
1450.261 73160736 74886536 76741576 78699560 80692272 82639168 84465424 
1453.636 86137776 87664176 89076832 90409264 91667992 92809544 93736216 
1457.012 94362904 94699640 94841584 94894024 94899424 94853368 94739368 
1460.387 94552928 94301888 93998248 93641944 93208896 92642392 91861352 
1463.762 90778024 89339728 87563432 85518088 83274560 80858800 78242384 
1467.137 75389496 72292680 68996072 65568128 62090272 58615732 55124640 
1470.513 51539036 47742036 43664312 39394080 35237756 31592198 28695770 
1473.888 26525294 24880394 23527068 22307680 21148234 20047044 19034760 
1477.263 18138614 17359308 16672317 16042657 15439245 14843321 14250337 
1480.638 13665513 13099302 12561657 12059116 11596393 11178527 10809533 
1484.014 10493804 10229899 10009009 9815107 9628778 9434436 9225627 9007988 
1487.871 8794346 8597639 8422305 8262304 8106415 7950512 7799221 7662551 
1491.728 7547062 7451322 7367837 7286491 7198422 7099020 6989540 6876889 
1495.586 6769653 6672301 6580555 6483347 6369516 6238303 6100107 5972401 
1499.443 5870224 5800675 5761758 5744299 5737651 5733488 5727981 5720360 
1503.301 5710691 5697263 5674367 5631501 5554506 5430719 5262024 5080085 
1507.158 4931901 4837976 4778743 4725849 4665760 4597776 4528431 4464520 
1511.016 4409689 4362094 4315575 4262871 4199669 4126205 4046801 3967679 
1514.873 3893854 3827864 3768835 3714225 3662563 3616621 3580839 3558289 
1518.730 3547265 3539849 3522111 3474880 3380401 3235801 3063551 2902811 
1522.588 2783245 2715356 2695385 2715323 2767739 2843974 2929664 3002724 
1526.445 3039827 3025212 2959654 2861118 2759369 2684549 2657145 2685849 
1530.303 2764905 2877628 2998354 3098923 3151620 3137669 3059647 2946276 
1534.160 2837371 2757736 2710522 2684016 2662879 2633276 2583409 2502854 
1538.017 2383331 2222643 2035215 1863707 1768646 1789906 1910397 2075031 
1541.875 2225307 2325665 2365174 2349850 2299316 2241160 2202894 2199964 
1545.732 2233067 2291688 2362209 2433875 2499255 2554545 2595709 2617942 
1549.590 2616042 2586776 2531848 2456534 2368839 2275700 2183779 2099569 
1553.447 2028956 1977095 1946274 1936522 1945475 1971769 2016240 2082755 
1557.305 2176253 2297350 2427345 2519983 2534914 2486991 2419548 2360643 
1561.162 2317270 2288290 2271669 2266973 2274434 2294419 2325065 2361843 
1565.019 2397291 2424412 2438473 2438240 2424446 2397891 2358311 2306344 
1568.877 2245024 2182913 2132332 2103065 2096206 2104896 2117748 2123908 
1572.734 2113852 2081656 2025761 1952531 1876652 1820683 1809237 1853824 
1576.592 1941348 2041407 2129035 2194202 2239995 2274001 2303413 2331727 
1580.449 2359544 2385064 2407253 2426945 2447637 2473928 2508719 2551178 
1584.307 2596942 2638310 2667246 2678415 2669780 2643310 2602742 2553978 
1588.164 2503120 2456867 2422147 2404788 2408086 2431676 2470962 2517950 
1592.021 2561877 2594409 2609842 2609209 2598342 2587342 2586275 2602508 
1595.879 2638477 2690817 2752400 2814192 2868089 2908415 2932833 2942507 
1599.736 2942206 2939538 2941606 2954116 2977535 3008363 3038425 3059280 
1603.594 3064752 3052706 3025312 2986910 2940839 2888168 2828466 2761203 
1607.451 2688983 2619109 2561511 2525216 2513818 2523549 2543280 2558878 
1611.308 2559144 2539247 2502154 2456200 2412151 2378634 2360410 2357712 
1615.166 2366040 2377168 2381099 2370238 2342554 2300815 2249620 2192071 
1619.023 2130933 2068572 2008717 1955760 1914324 1888199 1878149 1879713 
1622.881 1883440 1878549 1857318 1817754 1762458 1695227 1620391 1542341 
1626.738 1469127 1410850 1379072 1381532 1418429 1480397 1552683 1621322 
1630.596 1675469 1709731 1724168 1721440 1705905 1680392 1645867 1601401 
1634.453 1546498 1484686 1427172 1389177 1378640 1390340 1411914 1432125 
1638.310 1445323 1450709 1451739 1453169 1460184 1476640 1503871 1540912 
1642.168 1585771 1635956 1688874 1741333 1787178 1816191 1813063 1759497 
1646.025 1644703 1479533 1303824 1164963 1088225 1069358 1087494 1121443 
1649.883 1155328 1181409 1196892 1204500 1212674 1236531 1290830 1370795 
1653.740 1448814 1503571 1535491 1554212 1568046 1580782 1592222 1600702 
1657.598 1603064 1596911 1580549 1554645 1520196 1479599 1435217 1389476 
1661.455 1345003 1305253 1272885 1249158 1232976 1221546 1211710 1201643 
1665.312 1190645 1179116 1167488 1155627 1142339 1125828 1105132 1082378 
1669.170 1064110 1059925 1077529 1116792 1170976 1229852 1284350 1327454 
1673.027 1355240 1366541 1361655 1343607 1317949 1292658 1273782 1263813 
1676.885 1260324 1259061 1253511 1237163 1204600 1153601 1087826 1017611 
1680.742 958199 925026 929940 979684 1073510 1194366 1303858 1357965 1344571 
1685.082 1297178 1258862 1253246 1281060 1331409 1386318 1426873 1435184 
1688.939 1401841 1328750 1229952 1125695 1034350 968692 933460 928280 950727 
1693.279 998481 1070055 1162239 1267634 1369100 1442929 1471354 1453601 
1697.136 1402473 1330778 1244141 1138751 1006485 845010 669989 514412 405451 
1701.476 345858 321684 318137 326559 344664 374974 421702 486978 567625 
1705.815 654094 734606 801024 850886 885747 908457 920278 919581 904174 
1710.155 870474 817689 747417 664680 575322 485983 401704 325962 260279 
1714.495 204551 158111 120757 93580 78899 79462 96497 127352 168254 216253 
1719.316 270756 333290 405285 486514 573896 661759 740879 801589 837175 
1723.656 845940 832428 805306 773838 744696 721794 706992 701019 703674 
1727.995 715190 734473 758702 782170 798800 802717 791730 767498 735801 
1732.335 704636 683396 678850 689801 703972 705798 689337 658707 623101 
1736.675 592310 575389 579270 607639 657346 716949 768129 793057 783332 
1741.014 740314 672379 588892 498124 404589 310079 215258 121552 32472 
1745.354 -45391 -104724 -138610 -143645 -121551 -80408 -33033 8581 36283 
1749.693 50002 56795 67797 91525 131429 184861 245924 308057 365987 415998 
1754.515 454936 480709 493480 496764 499053 510929 541117 591348 655720 
1758.855 723288 782834 823664 840030 832660 809987 784294 764876 753458 
1763.194 743700 726541 695277 649515 594500 541084 501939 489964 512985 
1767.534 571076 655488 752197 848363 934888 1007913 1065538 1106262 1128452 
1771.874 1132738 1125828 1117822 1119583 1135694 1164764 1200546 1235269 
1775.731 1261188 1272353 1265906 1241682 1201676 1147754 1082777 1011002 
1779.589 938939 876185 832528 813439 817257 836412 859684 875985 877812 
1783.928 862606 833358 797140 762486 735502 717878 707424 700089 691461 
1788.268 676859 653032 616664 566431 503299 434438 374476 341779 351893 
1792.607 406512 491921 585475 666903 723686 752164 755549 741841 720135 
1796.947 697434 677655 661627 648585 638929 634582 638830 653795 678087 
1801.286 707192 735435 759665 781108 804742 835383 874790 918418 956505 
1805.626 975068 961254 908225 817191 697866 564739 433908 317473 222916 
1809.966 153702 111212 95204 104119 133815 176474 222154 262600 292639 
1814.305 313030 329775 352125 387509 438485 499252 558700 603790 625922 
1818.645 624528 606079 580166 553624 527582 497228 454936 395469 320126 
1822.984 238464 168022 126789 128744 175413 256433 353783 452017 543904 
1827.324 629505 712800 796012 875421 940931 978721 980515 948370 893383 
1831.664 828345 761391 695244 628443 558136 483197 405783 331732 269131 
1836.003 225237 205413 211347 241183 289290 347052 405882 456462 492319 
1840.343 509900 510166 498190 483728 480344 499716 547288 615370 683927 
1844.682 726707 725844 678485 594931 492286 386813 291909 213932 153371 
1849.022 105743 64748 24519 -16632 -56026 -87266 -101709 -92765 -57417 397 
1853.844 71310 141538 198882 235083 248709 245559 237304 237934 257859 
1858.183 301558 365754 441304 516070 580730 630169 664846 689835 710046 
1862.523 727868 741343 743833 727735 686781 618555 524895 411321 286206 
1866.863 158376 38867 -59802 -125990 -151628 -137782 -94421 -36810 19682 
1871.202 63721 88609 93017 80158 57193 32571 14645 10404 23360 54310 100971 
1876.506 158973 221657 281200 330704 364063 378157 373979 357232 336142 
1880.846 320756 320225 340055 383198 449397 536439 639493 752363 865893 
1885.185 968061 1044679 1081747 1066501 992238 861079 688242 498157 324006 
1889.525 194275 123740 107864 127120 157183 176408 175049 155360 129904 
1893.865 115620 128512 176010 253052 343702 427871 489300 519388 518492 
1898.204 492982 452349 404125 352523 298474 241780 183833 129407 85858 61368 
1903.026 60341 81484 117210 156884 190463 211347 218441 214927 205778 193811 
1907.848 178794 156884 123607 76513 19052 -40786 -89982 -116583 -111150 
1912.187 -68383 13220 130965 278149 446047 622106 792261 943854 1064508 
1916.527 1143767 1175960 1160245 1101844 1011732 901883 781440 656616 532890 
1920.867 417689 323376 266214 259881 310643 411388 544070 686118 818718 
1925.206 930472 1017644 1081581 1124400 1145927 1142139 1105365 1028338 
1929.064 907860 750239 572005 399117 262003 186518 188474 266479 401073 
1933.403 556013 687412 759001 751865 672412 548681 423460 335777 306531 
1937.743 329510 373216 392882 347217 218143 15606 -221411 -439069 -583859 
1942.082 -626973 -576447 -472995 -366241 -293600 -268667 -283369 -318036 
1945.940 -355978 -393487 -438539 -504537 -600205 -721093 -849454 -961412 
1949.797 -1034669 -1060087 -1042073 -995166 -935591 -873462 -808281 -730917 
1953.655 -628329 -489709 -311547 -95183 152277 423361 706694 987588 1243044 
1957.994 1440469 1545201 1525516 1369665 1093905 750239 412482 153968 31677 
1962.334 67068 243305 508242 796941 1039265 1179814 1191210 1073775 854605 
1966.673 580133 309250 94740 -29156 -55595 -6096 81583 159801 190628 149758 
1971.495 36283 -130694 -315586 -483421 -611455 -694695 -745174 -785196 
1975.353 -836391 -909504 -1000058 -1088281 -1150181 -1165779 -1129659 
1978.728 -1051196 -955395 -870188 -816053 -801765 -819195 -849586 -868171 
1982.585 -854282 -795845 -692479 -554177 -396797 -235817 -83821 47848 148764 
1986.925 206871 209988 146874 12524 -193128 -460252 -771172 -1096610 
1990.782 -1402450 -1648400 -1798662 -1829282 -1733323 -1524733 -1233615 
1994.158 -905007 -585348 -311282 -102703 43639 154332 266645 412283 606245 
1998.497 834984 1064010 1250488 1362353 1393465 1365444 1316320 1280727 
2002.355 1272885 1275444 1244008 1128087 896770 554686 149128 -248533 
2006.212 -564568 -758173 -836656 -849454 -857490 -908379 -1009976 -1132171 
2010.069 -1215872 -1201268 -1052948 -769320 -377166 81583 562018 1032290 
2013.927 1473482 1874156 2224408 2506786 2695751 2766572 2704353 2513251 
2017.784 2219546 1862143 1479433 1096961 728034 375239 43076 -256050 -498116 
2022.124 -649041 -669057 -529258 -214224 264457 864897 1511817 2112387 
2025.981 2576209 2829067 2836237 2602442 2175887 1632330 1065206 566165 
2029.839 200407 6229 -8946 135439 398686 721562 1037372 1275710 1388346 
2034.178 1356968 1206162 991872 794584 688474 712668 857759 1067132 1259260 
2038.518 1349822 1287241 1062748 715754 316346 -57682 -341610 -503544 
2042.375 -538160 -460617 -291183 -56489 213369 482666 703939 828577 817556 
2046.715 651705 343868 -59537 -488253 -875446 -1169249 -1349504 -1426659 
2050.572 -1428046 -1384549 -1317496 -1235433 -1132997 -997777 -814333 
2053.948 -573403 -274031 72635 445914 814867 1145461 1407293 1576659 1643539 
2058.287 1613074 1504569 1345269 1163136 980814 809157 651837 509237 385387 
2062.627 291113 243636 255836 331068 455500 600439 725943 799929 802850 
2066.966 736796 622603 491921 376002 295888 258356 257163 277553 302486 
2071.306 319231 323143 315285 300198 282559 264158 243073 216120 180651 
2075.646 137461 92420 54641 32638 31147 46489 66505 72834 48610 -14181 
2080.467 -109858 -216775 -302872 -333895 -287077 -156099 42513 278249 510332 
2084.807 702247 829075 880335 861112 787979 684160 572502 474440 407740 
2089.146 381938 399846 454240 529937 604885 659934 681936 668529 628609 
2093.486 579138 538364 519288 526752 557042 602927 656616 713365 770353 
2097.826 823631 865262 883323 864531 800294 691693 551468 399515 260113 
2102.165 150885 79595 43407 33433 39000 53017 72105 95337 120989 145648 
2106.987 164442 173822 175181 173723 176607 187778 204584 218275 217049 
2111.327 193380 148896 96198 55403 43971 70813 131429 210750 289157 353186 
2116.148 399647 435798 473412 519288 569848 610691 621143 583252 492219 
2120.488 357995 202960 52818 -71894 -163253 -225319 -271514 -314957 -364983 
2124.828 -422088 -481005 -530847 -560431 -560597 -523963 -447013 -331876 
2128.685 -187001 -27798 125065 250665 335843 380445 400675 423858 480809 
2133.025 592741 761258 965803 1168053 1326191 1402573 1377809 1252681 
2136.882 1046307 785887 504626 235315 6891 -156894 -241744 -247308 -188425 
2141.222 -89187 25679 139815 255571 390129 567227 799663 1074373 1346565 
2145.561 1556474 1641543 1567381 1343540 1025316 689436 406380 215988 113598 
2149.901 62660 16699 -51752 -134238 -189121 -166930 -32768 207435 501939 
2154.240 766005 914401 894446 707922 409729 92586 -142751 -224855 -129468 
2158.580 113432 438485 764345 1021430 1167588 1181276 1062582 829440 518658 
2162.920 181579 -120558 -326711 -396036 -311149 -89055 227557 576085 895508 
2167.259 1142737 1295749 1357965 1347695 1290730 1207790 1112706 1008644 
2171.117 895242 771116 642812 525857 448070 439082 523070 708021 976862 
2175.456 1289434 1585870 1804645 1896120 1836321 1633927 1329049 979286 
2179.314 639427 354446 142798 -198 -95680 -169613 -238565 -303335 -347966 
2183.653 -349258 -283766 -143943 60076 299104 536572 734606 868084 929808 
2187.993 928114 880667 806833 720533 626320 522805 408933 288262 173590 
2192.333 83141 32538 24917 47748 72470 63224 -6924 -145864 -334822 -534520 
2197.154 -693901 -769882 -741006 -612448 -413150 -180542 45926 241382 395137 
2201.494 507777 582953 621475 616199 556843 434870 252654 25315 -217801 
2205.833 -439929 -605665 -684936 -660256 -529655 -305554 -13352 310444 
2209.691 623466 888004 1071915 1159049 1150943 1068162 943555 813041 710643 
2214.031 657014 661726 721960 828179 964973 1114567 1257034 1370662 1433821 
2218.370 1431361 1356769 1218655 1038169 846504 674005 542179 459746 423792 
2222.710 424455 453145 507412 591215 707789 854903 1016315 1163036 1261586 
2227.049 1281558 1210813 1060688 864897 665742 507081 417391 404125 454770 
2231.389 543904 642513 726275 780942 802020 791365 753989 694879 619119 
2235.729 530402 433974 334683 237138 144289 57458 -23458 -97833 -163618 
2240.068 -216443 -250984 -262805 -251845 -221577 -179648 -134271 -91274 
2243.926 -51719 -11663 36217 98452 178529 274900 380777 485983 581460 658972 
2248.747 714061 745758 755947 748811 731386 713531 705997 719007 759366 
2253.087 825755 908059 986227 1036276 1034914 966966 830669 639759 420044 
2257.427 202363 18886 -107407 -165009 -154211 -85510 23625 153205 283454 
2261.766 396663 478288 520051 518459 477226 406745 323773 247349 197457 
2266.106 190363 234884 331864 472947 642646 819614 980847 1106063 1179116 
2270.445 1193336 1150777 1062681 945182 816195 691527 581361 490030 417855 
2274.785 363599 327355 310908 317639 348776 400874 465716 530568 583451 
2279.125 617228 631828 634284 635279 644172 662589 684989 699658 694813 
2283.464 664282 612052 551501 501740 479216 491622 534250 592509 644769 
2287.804 671848 664248 623433 562151 498290 449828 428170 435997 467607 
2292.143 512819 559530 597983 622371 630866 624462 606013 579669 550174 
2296.483 522042 500678 490296 493679 510829 539856 576384 615834 654492 
2300.823 690498 724118 757043 791199 827382 864731 900090 929940 950196 
2305.162 957867 951557 931601 899625 857792 808892 755649 700620 647192 
2309.502 598747 559165 532591 522705 531596 559563 604819 662755 727470 
2313.841 792360 851617 900987 938673 965671 985097 1001138 1017976 1038003 
2318.181 1060722 1083574 1101578 1109584 1103505 1083109 1051521 1014954 
2322.038 980747 955708 943721 944451 954048 967231 978190 983205 981245 
2326.378 974072 965737 961619 966866 985263 1018574 1065505 1121642 1180412 
2330.718 1233208 1272054 1291096 1287839 1263946 1225333 1179814 1135362 
2334.575 1098788 1073809 1060356 1055474 1055341 1055474 1053149 1047502 
2338.432 1039830 1032888 1031028 1039265 1061884 1102508 1161541 1234936 
2342.290 1314094 1384789 1432391 1443195 1410185 1336827 1236830 1131509 
2346.147 1041391 982507 960988 974105 1013094 1067730 1127821 1184731 
2350.005 1233740 1273118 1305719 1337292 1376479 1431427 1506796 1600303 
2353.862 1702113 1795728 1861211 1881277 1846803 1761261 1639348 1504469 
2357.719 1381133 1285181 1221811 1182804 1152671 1115264 1061884 996389 
2361.577 933560 893748 894147 943156 1034881 1151442 1267834 1361156 1414407 
2365.917 1422119 1389044 1327587 1252648 1176857 1109650 1053879 1008444 
2369.774 969257 931767 893317 854737 820875 799265 799962 829175 889465 
2374.114 975998 1077296 1175794 1254575 1300169 1306549 1276972 1222609 
2377.971 1158319 1098290 1052019 1022028 1004559 991440 974039 946610 907760 
2382.311 860713 811680 768029 734639 714327 706262 707822 714460 722823 
2386.650 729860 734008 734573 731287 724118 713331 699160 682899 666206 
2390.990 652103 644172 646063 660930 690365 733444 786253 842487 893715 
2395.329 931933 951358 950462 932265 903776 874259 852347 843649 849724 
2399.669 868615 896073 927450 959494 989913 1017279 1039332 1052451 1052086 
2404.009 1034615 999345 950329 895707 846869 813937 803149 814203 841358 
2408.348 874823 904606 924594 933394 934124 932165 933626 941861 956970 
2412.688 976629 997186 1014090 1023987 1024220 1012895 989182 953815 909321 
2417.027 860381 813008 774071 748712 739319 745028 762354 786286 812145 
2421.367 837076 859651 880169 899260 917422 934954 951690 967431 981710 
2425.707 993167 999012 995592 978256 943422 890860 823764 750039 679348 
2430.046 622106 586338 576019 591746 630468 688408 760063 839566 919514 
2434.386 990477 1042553 1066966 1059160 1021065 963080 901020 852314 832096 
2438.725 847799 896803 968061 1045144 1110713 1150445 1157023 1129781 
2442.583 1074340 1000075 918385 839864 772743 721761 688009 668728 659237 
2446.922 655056 653596 656251 667633 694315 741377 809456 892785 980017 
2451.262 1057134 1110713 1133070 1123735 1089686 1041823 992038 949797 
2455.119 919846 903576 899858 907660 927384 960258 1008046 1070985 1145993 
2459.459 1227593 1306782 1374086 1420224 1437843 1422817 1374651 1297111 
2463.316 1197490 1087162 978290 882327 808228 759599 735236 729494 735469 
2467.656 747052 760030 773672 788908 806435 825423 843549 857427 864996 
2471.996 867353 868582 874956 891922 921075 958099 994263 1018441 1020865 
2476.335 998315 954081 899028 846205 807663 790269 793688 810950 831930 
2480.675 847699 853376 850123 844313 845010 860116 893715 944484 1006485 
2485.014 1070852 1128585 1173568 1202773 1216827 1218622 1211378 1196692 
2488.872 1174332 1142239 1098190 1041557 974670 903377 836345 783232 751633 
2493.211 745857 764810 803580 852812 902813 945746 975899 991673 994795 
2497.551 989249 979286 969489 962649 959992 961088 963944 965671 963114 
2501.891 953882 937279 914899 889963 867685 852745 848795 856364 873661 
2506.230 897334 923930 951126 979319 1009640 1043583 1080884 1117756 1147887 
2510.570 1163634 1158352 1129217 1078459 1012928 941596 874060 817523 775133 
2514.909 747152 731685 726275 728764 738257 753524 773174 795746 820145 
2519.249 846205 875322 909819 951391 999544 1049429 1093307 1121941 1128087 
2523.589 1109617 1071550 1025449 984965 962283 963877 987854 1025150 1063412 
2527.928 1091247 1101545 1093971 1072845 1045875 1018906 995226 974603 
2531.786 954546 932829 909586 887374 871271 866059 874823 898098 933261 
2536.125 976563 1023091 1068793 1110414 1144764 1169016 1181176 1180412 
2539.983 1168053 1149083 1130678 1120546 1125031 1146093 1180179 1218921 
2543.840 1253279 1274912 1281060 1274613 1264212 1259958 1270392 1298607 
2547.698 1341712 1391271 1436081 1466933 1478669 1472385 1453534 1431261 
2551.555 1414606 1409587 1419094 1441766 1473981 1510155 1545833 1576526 
2555.412 1599272 1612342 1614637 1605392 1585105 1554445 1515109 1469326 
2559.270 1419859 1369532 1321006 1276108 1236066 1201776 1174066 1154166 
2563.127 1144930 1150212 1174598 1222144 1294253 1388312 1496722 1607786 
2566.985 1708466 1786180 1833926 1850763 1842544 1818786 1790372 1765719 
2570.842 1748785 1739071 1733981 1731120 1730089 1733416 1744394 1766018 
2574.699 1798190 1837652 1878682 1915921 1945575 1967243 1982354 1993139 
2578.557 1999863 2000262 1990775 1968907 1935590 1897085 1863707 1846703 
2582.414 1854989 1890728 1949269 2019735 2090046 2149513 2192304 2218080 
2586.272 2230137 2232634 2228538 2218813 2202894 2181115 2156073 2132765 
2590.129 2117914 2117148 2132998 2163765 2204060 2246889 2285392 2315305 
2593.987 2334992 2345319 2348617 2347185 2343220 2338856 2336591 2338923 
2597.844 2348084 2365274 2389561 2418215 2447137 2472395 2492123 2506419 
2601.701 2517717 2529115 2543179 2561011 2581576 2603175 2624142 2643310 
2605.559 2660812 2676315 2688750 2695918 2694151 2679582 2651111 2610609 
2609.416 2564010 2518750 2483525 2463798 2461365 2473095 2493056 2514351 
2613.274 2531781 2543013 2549212 2554311 2562077 2576176 2598075 2626742 
2617.131 2660179 2695385 2729660 2760336 2785146 2801687 2808023 2802654 
2620.989 2785246 2757535 2722825 2685983 2651978 2624976 2607009 2598175 
2624.846 2597008 2601475 2609975 2622209 2638176 2658679 2683349 2710922 
2628.703 2738996 2765372 2789281 2811558 2835637 2865620 2904612 2953215 
2632.561 3008263 3062417 3106565 3132062 3133297 3109502 3065219 3009297 
2636.418 2952548 2905012 2873759 2861685 2866721 2883198 2903611 2920557 
2640.276 2928463 2925094 2912351 2895072 2879796 2873492 2880930 2903211 
2644.133 2938437 2981205 3025179 3064352 3094852 3115376 3127557 3133631 
2647.990 3137002 3139605 3142842 3146981 3152387 3159463 3169242 3182426 
2651.848 3199182 3218876 3239406 3257900 3271788 3279099 3279900 3275927 
2655.705 3270018 3266146 3267515 3276328 3293188 3316826 3345073 3374758 
2659.563 3403543 3430160 3454874 3479456 3506111 3536942 3572387 3611208 
2663.420 3650100 3685587 3714025 3733842 3745373 3750687 3752926 3754630 
2667.278 3757271 3760513 3763654 3765626 3766529 3767063 3768300 3770506 
2671.135 3772545 3772511 3767364 3755098 3735915 3712187 3687959 3667208 
2674.992 3652673 3644787 3641847 3641345 3641379 3641980 3644921 3652539 
2678.850 3665972 3684150 3703565 3719071 3726056 3722848 3710950 3695077 
2682.707 3680775 3672889 3673122 3679739 3688093 3693406 3691835 3682379 
2686.565 3667041 3649599 3633961 3623236 3618291 3618391 3621666 3626176 
2690.422 3630420 3633928 3636668 3638873 3640677 3641813 3641813 3640377 
2694.280 3637403 3633026 3627814 3622167 3616287 3609571 3601352 3590427 
2698.137 3576295 3559458 3541452 3525151 3513827 3510319 3515597 3528658 
2701.994 3545394 3561128 3571050 3572420 3565705 3554581 3545160 3542755 
2705.852 3551307 3571050 3599214 3630587 3659823 3683448 3700424 3711853 
2709.709 3720341 3728262 3737552 3748748 3762217 3779062 3801423 3831975 
2713.567 3873260 3925917 3988010 4055028 4120519 4178324 4224058 4256179 
2717.424 4276390 4288604 4297806 4308280 4322837 4342348 4366244 4392920 
2721.281 4420635 4447816 4473258 4496458 4516680 4533520 4545976 4553208 
2725.139 4553710 4547214 4534290 4516914 4498265 4482129 4471483 4467064 
2728.996 4466395 4464419 4454377 4430007 4388033 4329798 4261198 4190535 
2732.854 4127309 4078808 4047537 4031685 4026233 4024427 4019879 4009111 
2736.711 3990585 3965406 3935881 3904720 3874297 3846817 3824019 3806705 
2740.569 3795073 3787519 3781369 3772979 3759243 3738388 3711418 3681944 
2744.426 3654611 3634563 3624706 3625408 3633928 3646324 3658219 3666740 
2748.283 3671485 3673189 3674158 3675462 3677767 3679639 3679772 3676698 
2752.141 3670148 3661227 3651704 3643651 3637937 3634396 3631756 3628448 
2755.998 3623503 3617189 3611208 3609036 3614015 3629284 3656515 3694776 
2759.856 3741329 3791195 3839263 3880214 3911005 3930531 3940830 3945578 
2763.713 3950359 3959454 3976072 4000751 4031417 4064527 4095766 4121790 
2767.571 4141225 4154538 4163905 4171968 4181368 4193312 4208166 4225497 
2771.428 4245138 4267790 4295062 4329229 4372101 4424015 4482966 4544402 
2775.285 4602666 4652564 4690846 4718111 4738443 4758777 4785644 4824909 
2779.143 4878117 4943161 5014986 5087494 5155688 5217085 5272153 5323705 
2783.000 5375531 5430719 5490981 5557224 5629420 5707838 5793221 5886311 
2786.858 5986578 6091941 6198137 6298946 6389085 6465018 6526499 6577393 
2790.715 6624357 6674454 6733341 6803309 6883386 6969809 7057932 7144188 
2794.573 7227697 7310313 7395540 7487559 7589309 7701301 7821318 7945451 
2798.430 8068877 8187003 8297529 8400381 8498222 8595375 8697047 8807973 
2802.287 8931035 9066854 9214052 9369426 9529429 9691183 9852897 10014265 
2806.145 10176302 10339825 10505515 10672762 10840515 11007177 11171523 
2809.520 11333449 11494312 11656325 11822586 11996029 12178741 12371793 
2812.895 12574890 12786919 13006051 13230452 13459616 13694066 13936066 
2816.271 14190012 14460960 14754255 15074231 15422319 15797282 16194200 
2819.646 16606284 17025582 17444424 17857698 18263348 18662838 19061106 
2823.021 19465766 19886588 20333198 20815794 21342498 21919216 22549052 
2826.396 23232334 23967670 24752870 25586968 26471480 27411368 28413956 
2829.771 29489498 30647922 31897690 33244916 34692904 36243328 37897712 
2833.147 39659188 41533956 43531960 45664836 47945644 50385892 52993460 
2836.522 55771556 58718172 61826892 65086840 68486792 72013616 75654488 
2839.897 79397624 83231128 87143200 91123600 95162072 99250312 103382360 
2843.272 107552960 111757440 115990216 120242480 124501584 128749784 
2846.166 132962584 137110544 141155776 145051408 148745616 152177584 
2849.059 155284016 158004944 160283232 162072912 163338928 164057344 
2851.952 164216240 163815792 162870512 161408816 159476928 157136576 
2854.845 154456544 151514464 148384224 145131936 141818400 138492496 
2857.738 135196800 131968944 128838312 125830072 122963448 120250400 
2860.631 117699976 115318976 113114128 111094160 109268712 107645712 
2863.524 106230136 105020280 104006928 103174024 102501184 101964456 
2866.417 101538144 101197152 100913856 100658784 100401928 100110224 
2869.310 99752296 99299904 98728312 98020264 97165056 96159472 95007944 
2872.685 93723880 92329168 90852440 89330648 87803752 86310496 84888464 
2876.061 83567704 82370320 81312152 80401736 79643744 79041416 78597296 
2879.436 78314992 78197832 78248296 78466600 78849472 79389944 80077016 
2882.811 80898112 81840136 82891416 84043584 85291640 86633120 88066408 
2886.186 89588768 91194192 92873144 94612128 96396488 98212352 100047848 
2889.562 101895880 103752216 105615432 107484544 109357864 111231248 
2892.455 113099168 114953176 116785216 118587792 120355432 122086224 
2895.348 123782352 125450016 127097936 128736288 130374968 132020712 
2898.241 133677808 135348272 137031776 138728352 140438160 142162000 
2901.134 143901104 145656656 147430320 149225168 151046368 152901728 
2904.027 154800960 156752400 158761568 160828624 162948864 165114768 
2906.920 167319888 169562224 171845808 174179760 176574848 179039680 
2909.813 181578256 184189312 186868368 189610720 192412816 195272480 
2912.706 198185664 201143168 204127872 207115664 210074880 212974384 
2915.599 215784384 218477312 221027664 223406944 225578768 227502624 
2918.492 229128832 230406320 231289248 231736272 231717168 231213264 
2921.385 230217840 228737488 226792544 224417120 221651952 218543552 
2924.278 215137504 211472688 207585536 203510080 199280384 194936544 
2927.171 190520272 186072448 181630448 177220560 172860272 168558576 
2930.064 164320176 160149392 156052816 152038128 148113728 144286208 
2932.958 140559184 136934208 133412392 129995824 126689136 123498600 
2935.851 120431416 117494944 114694424 112034728 109520152 107154920 
2938.744 104944536 102894224 101008840 99291752 97744880 96368488 95162808 
2942.119 94128344 93266512 92579272 92068064 91732168 91567056 91565176 
2945.494 91714240 91999008 92403272 92907816 93493944 94142096 94831232 
2948.869 95541208 96250480 96936728 97578464 98152288 98634664 99003032 
2952.245 99235192 99312984 99223912 98960960 98524232 97918496 97151544 
2955.620 96233408 95174608 93987544 92684632 91280328 89788368 88220400 
2958.995 86585432 84887944 83128968 81308272 79425712 77483552 75486232 
2962.370 73440496 71353160 69231736 67082720 64913744 62733448 60551896 
2965.746 58381400 56234028 54120604 52049500 50025404 48050812 46126060 
2969.121 44251548 42428932 40661848 38955240 37315352 35747572 34255376 
2972.496 32839366 31496816 30222054 29007484 27845616 26730326 25658284 
2975.871 24629028 23645136 22710424 21828514 21001526 20228732 19506626 
2979.247 18828864 18187846 17576032 16986714 16416470 15864223 15331932 
2982.622 14822785 14340739 13888237 13465632 13070208 12697694 12342646 
2985.997 12000117 11667251 11343686 11030966 10732363 10450730 10187733 
2989.372 9943540 9716596 9504738 9305882 9118824 8943245 8779266 8626570 
2993.230 8484098 8349340 8219013 8089772 7958444 7823241 7683932 7541701 
2997.087 7398371 7256301 7117208 6982469 6852956 6729067 6611539 6501105 
3000.945 6399341 6308393 6229934 6165536 6114590 6074502 6040567 6006601 
3004.802 5965952 5913652 5847824 5770387 5686251 5602735 5527155 5464036 
3008.659 5415152 5377846 5346984 5315453 5277351 5228420 5167289 5095137 
3012.517 5014886 4929924 4843337 4757504 4674066 4593590 4516512 4442828 
3016.374 4372001 4303461 4236639 4170897 4106938 4046132 3990652 3942802 
3020.232 3904586 3876470 3857147 3843842 3832276 3817869 3796376 3764724 
3024.089 3721678 3667776 3605795 3540049 3476216 3420842 3378632 3353221 
3027.947 3345006 3351083 3365475 3380668 3389718 3387314 3371385 3344105 
3031.804 3310182 3275260 3244480 3220278 3201919 3186532 3169643 3148082 
3035.661 3119914 3086309 3050137 3015036 2983941 2957319 2933099 2907247 
3039.519 2874092 2829434 2771441 2701886 2626176 2551445 2485825 2435475 
3043.376 2403222 2388429 2387329 2394759 2405387 2416049 2425345 2433442 
3047.234 2441306 2449036 2455801 2459666 2458633 2451369 2438940 2423713 
3051.091 2409685 2400423 2398357 2403355 2412984 2423379 2429444 2426811 
3054.948 2411951 2383131 2340455 2285592 2222177 2154974 2089680 2032552 
3058.806 1988878 1962250 1953729 1961551 1981755 2008650 2036413 2060682 
3062.663 2078627 2089747 2094541 2094674 2091478 2085585 2077262 2065343 
3066.521 2049163 2028058 2002026 1972302 1941115 1910796 1884039 1862010 
3070.378 1844440 1828835 1812165 1790738 1762991 1729590 1694662 1663528 
3074.236 1641177 1630135 1629038 1632962 1634625 1628073 1610380 1583808 
3078.093 1554246 1529506 1515940 1515109 1523887 1534826 1539615 1531934 
3081.950 1510055 1476807 1439040 1404002 1377144 1360890 1354143 1353246 
3085.808 1354110 1354043 1351650 1347329 1341779 1335996 1330080 1323466 
3089.665 1315091 1303725 1288138 1267900 1242413 1211943 1177721 1142405 
3093.523 1109916 1085268 1073377 1078027 1100681 1139747 1190180 1245204 
3097.380 1296347 1334799 1353744 1348127 1316520 1261620 1190844 1114633 
3101.238 1044878 993068 966268 966202 988817 1026279 1068195 1105299 1131542 
3105.577 1144631 1145163 1135661 1119317 1098522 1075270 1051754 1030995 
3109.435 1016913 1014289 1026678 1055640 1099718 1154232 1211877 1264444 
3113.292 1304855 1327255 1329149 1311501 1278302 1236133 1192473 1154730 
3117.149 1127722 1113304 1109849 1112474 1115297 1113670 1105896 1093240 
3121.007 1080485 1072148 1071716 1080020 1093672 1108155 1118320 1120978 
3124.864 1115630 1104202 1089520 1074307 1059626 1045377 1030696 1014854 
3128.722 997916 980349 962483 943621 922137 896272 865395 831100 798236 
3133.061 773440 763283 772112 799995 842819 892453 940467 979053 1003496 
3137.401 1013559 1012164 1004824 996821 993334 996953 1007946 1024618 
3141.258 1043816 1061851 1075901 1083773 1084903 1080053 1070454 1057134 
3145.116 1041258 1023223 1004359 986758 973408 968327 974238 991939 1018574 
3149.455 1048598 1074141 1088058 1086564 1070487 1045044 1018408 998946 
3153.313 992171 999577 1018275 1042587 1066069 1083010 1090018 1086630 
3157.170 1073842 1054178 1031792 1010304 993466 984002 983171 989249 998415 
3161.510 1005356 1004658 993035 970585 940865 910449 885913 873031 874359 
3165.849 889631 915496 947440 980515 1009839 1031859 1044214 1046074 1038933 
3170.189 1026312 1014256 1008411 1014489 1034383 1066501 1105299 1143800 
3174.046 1174465 1191841 1193635 1180179 1153634 1116792 1072679 1025249 
3177.904 978622 938341 909619 896371 899393 915164 936681 954978 962416 
3182.243 954712 932066 898762 861809 827913 801688 785987 781539 787946 
3186.583 804975 831864 866424 905071 941928 970552 985562 984898 970519 
3190.923 947075 921108 897799 879571 865727 854173 843018 831930 822270 
3195.262 816859 817224 823266 832162 839665 841558 836146 824096 808493 
3199.602 793024 780742 773141 769988 769556 770287 770154 767731 761524 
3203.941 750006 732482 709382 683396 658375 639427 630036 631430 641551 
3208.281 655654 669259 678717 683795 686715 691295 699857 712568 726142 
3212.621 735933 737858 730291 715124 696339 678518 664613 654426 645433 
3216.960 634748 620878 604752 590120 581659 583020 594997 615105 638830 
3221.300 661328 679215 691759 699957 705665 709946 712103 710046 700853 
3225.639 682202 653762 616996 575488 533222 494011 460376 433145 412549 
3229.979 397558 387675 382933 383795 391157 405186 424986 448336 471985 
3234.319 492385 506882 514677 517596 519156 523402 533321 549378 568952 
3238.658 587532 599609 601733 592940 575090 551966 527715 505223 485618 
3242.998 468867 454837 444488 439148 440309 448203 460044 471587 476994 
3247.337 472483 457424 435500 413411 398221 394573 402665 417955 432316 
3251.677 438750 432415 412781 383828 352158 324304 304840 295523 295623 
3256.017 303216 315650 331466 348942 366385 381739 392981 398586 398188 
3260.356 393645 387775 384259 386349 395800 412416 434571 459547 484424 
3264.696 506284 523070 533155 536108 532359 523700 512819 502569 495139 
3269.035 490528 486448 478686 462930 436097 398785 354944 312301 279575 
3273.375 263561 267706 289853 323011 357696 384657 397392 393479 375272 
3277.715 348245 319164 293169 273342 259251 248874 238696 226629 212872 
3282.054 199612 190562 189667 198982 218010 243371 270391 294495 312699 
3286.394 324835 332561 339358 347881 359255 372851 386713 398686 407441 
3290.733 413510 419115 427274 440077 458452 481406 506119 528577 544634 
3295.073 550804 544866 526056 495736 457258 415268 375571 343404 322281 
3299.413 313395 314953 323077 333124 341083 345460 347383 349671 356900 
3303.752 372088 396862 429430 465484 499882 526819 542013 544037 534349 
3308.092 516900 497361 481472 473412 474805 484325 498787 513881 526056 
3312.431 533387 535643 533520 527715 517265 499783 471620 430491 376632 
3316.771 314953 253947 204418 176507 177038 207203 262136 333058 408502 
3321.111 477127 529838 561222 569516 556212 527018 489698 452714 424455 
3325.450 410293 411288 423162 437888 446047 439380 414671 374344 326161 
3329.790 280039 245924 229911 233823 255240 289820 332693 380313 430425 
3334.129 481008 529108 570113 598548 608601 597088 564307 514047 453410 
3338.469 390958 334716 291544 264987 257229 266910 291047 325000 363068 
3342.809 399614 430790 454339 471455 484955 498389 514345 532923 551070 
3347.148 564307 567492 556677 531762 495935 455301 416197 384823 364229 
3351.488 355143 354679 359089 363732 365025 361112 352258 340187 328250 
3355.827 319595 317075 322547 336208 357000 383530 413742 445715 477292 
3360.167 505986 528577 541316 541349 527515 501607 468801 436594 413477 
3364.507 406114 416926 443228 477989 511857 535278 542411 531297 504095 
3368.846 465484 421039 375736 333025 295291 264258 241780 229679 229248 
3373.186 240288 260544 286438 312268 333191 345128 346156 336905 320259 
3377.525 300430 282625 271021 268767 277486 296219 322082 350998 377726 
3381.865 398288 409431 410492 402300 387542 369469 351429 335777 324370 
3386.205 317971 316943 321220 330405 343570 359487 376764 393844 409663 
3390.544 423460 434737 442664 446180 443792 433675 414903 387974 355076 
3394.884 320391 289290 267009 257627 262368 279045 302022 324271 338364 
3399.223 338662 324271 297280 264854 234884 215623 212242 225336 250764 
3403.563 281995 311339 333191 345394 349472 349041 347914 348544 350600 
3407.903 352954 353783 352490 350832 351197 356038 365290 376300 384127 
3412.242 383861 373017 353253 330273 312201 305669 314091 335313 362969 
3416.582 388239 403528 404556 391655 368374 340419 313130 289721 271618 
3420.921 258522 249338 243205 239293 236475 232762 225502 212341 191556 
3425.261 163978 132622 102727 79528 68228 71343 89305 119796 159834 205081 
3430.083 251228 293865 328979 353418 365456 365522 356403 342774 330472 
3434.422 324835 329079 343835 367015 394507 421271 442664 455765 459115 
3438.762 453245 440143 422664 403561 385652 370596 359288 351495 346223 
3443.102 342608 340353 340552 344664 354380 370430 391456 414638 435566 
3447.441 450259 456130 453775 445350 433709 421404 409265 397591 385420 
3451.781 373249 362571 356536 358592 371027 393014 421072 448999 469398 
3456.120 476629 467739 443858 409232 370132 333356 303879 285145 277519 
3460.460 279343 286670 294794 297977 291710 272911 241548 200871 156288 
3464.800 115255 85162 71045 75220 96033 128943 167524 205579 238232 262401 
3469.621 277752 284880 285709 282029 276094 270026 265285 263031 263661 
3473.961 266711 271320 275762 279244 280537 279177 275066 267838 257196 
3478.301 243404 227425 211711 200109 196794 205181 226265 257163 291611 
3482.640 320988 338165 338960 324138 298640 271187 250399 243669 254544 
3486.980 282062 321419 365091 405949 437888 457192 463228 456827 440806 
3491.319 418286 393479 370497 352490 342144 339657 343570 350401 356668 
3495.659 358824 355574 347217 336009 324403 314821 308653 306531 308620 
3499.999 316147 330007 351794 381606 417059 452979 482069 498058 496598 
3504.338 478686 448203 411985 376201 344598 318501 296485 276226 255638 
3508.678 234785 215557 200706 192253 190429 192717 195302 194009 186253 
3513.017 171568 151913 130435 111013 96795 90730 94210 108361 132854 166397 
3517.839 205778 245957 280802 304078 312002 303812 282194 252521 221524 
3522.179 195103 176408 164541 155956 145979 131064 110847 88012 67035 52454 
3527.000 47384 51957 63555 77905 90929 100275 105809 108726 111410 115951 
3531.822 123110 132125 141306 149062 153371 153603 149427 142400 134047 
3536.162 126192 120624 117575 116349 115586 113664 109422 102329 93315 84301 
3540.984 77540 75287 79296 90034 106108 125264 143924 158177 164707 161359 
3545.805 147504 124635 95204 62694 30716 2849 -17593 -27235 -22928 -1822 
3550.627 37409 93680 162453 235713 303282 356038 387874 396762 384790 356403 
3555.449 317274 273276 229314 189899 157282 132722 115818 105279 99015 95569 
3560.271 94144 95966 103456 119431 146046 183269 227591 272447 308919 327189 
3565.093 320060 286040 233492 179457 145283 145350 180120 237370 300099 
3569.432 354281 390660 405650 399780 375935 337634 288063 229944 165668 
3573.772 97922 31213 -28726 -75108 -101775 -105651 -86769 -49035 1126 55569 
3578.594 106439 147769 175811 190032 192816 188242 181247 176441 177369 
3582.933 185159 199015 216054 232530 244133 247813 241879 227789 209457 
3587.273 192650 181910 179358 183269 191225 200805 210949 220927 229977 
3591.612 236343 237271 229149 209623 178629 139715 100739 69653 53216 53315 
3596.434 66869 86853 105710 117376 119464 113200 103622 97126 99115 111377 
3601.256 132390 157249 180485 198120 209192 215126 219502 226331 239956 
3605.595 263561 299369 347814 406678 471189 534150 587731 626220 647590 
3609.935 654592 653032 650510 654028 668828 695344 727835 755018 764743 
3614.275 747550 700952 629472 542046 449463 363267 295192 253648 242675 
3618.614 259517 294926 335545 369601 390162 395435 386315 365091 333986 
3622.954 295556 252720 209689 171369 143825 132722 142698 176540 234121 
3627.293 311870 398188 474639 521411 531231 513782 488836 471421 468204 
3631.633 478254 496598 516469 530667 534714 528113 513715 496067 477923 
3635.973 458717 435035 402698 359421 307393 254311 210883 187612 190827 
3640.312 220563 270524 329377 384956 428269 454969 466313 467043 461835 
3644.652 453377 441669 424157 397657 360283 313428 262169 213767 173922 
3648.991 145118 126855 119000 122348 137461 162354 193181 224242 250399 
3653.331 267474 273939 270822 262600 256267 258688 272447 293268 311969 
3657.671 319098 309748 283819 245460 200706 156752 118801 89802 70249 59082 
3662.492 54840 56662 64351 77640 95801 117509 141372 166464 193479 224342 
3667.314 262169 308985 363897 420044 464787 483993 471620 434803 389798 
3671.654 351031 327786 322248 331234 346919 356701 345825 305205 242277 
3675.993 181281 146344 145416 174220 221226 273707 318335 345029 349340 
3680.333 333157 303912 272148 248344 239194 248012 273872 312069 355740 
3684.673 397259 430193 449198 450691 432382 394971 343039 286571 239923 
3689.012 215358 217745 241713 275829 307957 329842 338994 336805 326824 
3693.352 312035 294263 273806 250930 226762 203755 186220 177933 181015 
3697.691 194208 213767 235149 254311 269828 283222 298010 316910 339159 
3702.031 358824 368076 360349 334683 296087 254113 219469 201269 205115 
3706.371 230740 273309 323972 373448 413776 439646 448800 441967 421901 
3710.710 393910 365390 344266 336573 343669 361576 382900 399415 405683 
3715.050 399216 381440 356701 330637 307858 289621 272845 251759 220861 
3719.389 178894 131031 89007 68128 80556 130335 209126 299734 380213 433045 
3724.211 450326 433609 392650 341447 294827 262965 250399 255969 275464 
3728.551 304177 337568 372287 405020 432448 452216 463726 468934 472848 
3732.890 480941 496034 515739 532293 535146 515142 471886 414074 355375 
3737.230 306067 270988 249703 240387 239989 246620 258721 275497 296352 
3741.570 321121 348710 377428 403461 419978 418353 394540 352556 303547 
3745.909 257925 222154 198617 187976 188971 199280 213037 223314 224010 
3750.249 213932 199114 188938 190231 203059 220297 232398 233226 219800 
3754.588 193545 158774 121320 87780 62793 49869 49637 60904 81484 109488 
3759.410 143030 180021 217811 253151 283487 307592 325100 336805 342873 
3763.750 343006 336639 322746 302154 278017 255770 241647 241183 257527 
3768.089 291014 338761 393578 445284 485054 506915 510497 499020 476463 
3772.429 446279 411156 374443 339823 312931 298971 301558 321353 354977 
3776.769 395966 435798 466645 483263 485121 476662 465716 459414 460243 
3781.108 466346 472682 474141 466247 447606 419911 388040 358359 337137 
3785.448 328316 332262 347317 370530 399846 433808 471587 511990 553060 
3789.787 591248 622172 641219 645333 634682 611919 582057 550937 523435 
3794.127 502005 487177 477525 471189 467441 467540 474241 490063 515706 
3798.467 549345 586802 622238 648187 657479 646063 617228 580432 545928 
3802.806 519122 499020 482202 465782 448634 432216 419911 415500 420608 
3807.146 432680 446014 454638 455666 449662 439679 428899 420276 415401 
3811.485 413776 413411 411587 405153 392252 372254 346455 319264 297612 
3815.825 288859 297280 321850 357696 398918 441636 482633 519056 547785 
3820.165 564705 566796 554951 534814 513417 495669 483728 477458 476397 
3824.504 479979 487575 498622 511857 525724 538430 548880 556942 563113 
3828.844 567957 572104 575555 577877 578673 577479 574592 570943 567360 
3833.183 564672 562781 560824 557407 551169 541184 528013 514080 503597 
3837.523 501010 510166 530634 557672 583351 599443 599742 582489 550207 
3841.863 509701 470360 442299 433941 448302 481870 526023 570578 606013 
3846.202 626519 630302 619020 595794 565170 531629 498124 467010 439347 
3850.542 415533 396032 381871 375272 378124 391721 413975 441138 469929 
3854.881 499252 528643 556378 579835 594898 598879 589423 567492 535776 
3859.221 499152 462996 431553 408138 393247 385652 381938 379019 374741 
3863.561 369435 365257 365556 372752 387111 406479 427705 448070 464854 
3867.900 476729 483130 484889 485452 489400 500678 519952 544269 568687 
3872.240 589191 600970 600837 587764 563644 533354 502669 476032 455600 
3876.579 442996 439214 445815 464356 494774 533819 572436 597950 598946 
3880.919 571706 523236 467441 419845 391091 387443 408967 449563 496001 
3885.259 531961 544501 530468 496830 454571 412880 375770 344565 318866 
3889.598 298408 284880 282393 295026 324669 368175 418353 465318 501375 
3893.938 521975 526056 516104 496200 472350 449961 434173 428833 435831 
3898.277 454803 483263 517265 552430 585110 613578 637071 655255 667268 
3902.617 671217 664580 645599 615005 576649 536473 499982 470758 449795 
3906.957 435964 427108 421470 417722 416562 419414 428137 443692 465384 
3911.296 490793 515706 535511 547653 551700 549477 544634 541681 543340 
3915.636 550804 562118 573531 580332 579171 569383 552098 530070 505853 
3919.975 481107 456528 431586 405683 378721 351760 327321 309151 301392 
3924.315 306730 325929 355939 392020 428501 460310 484026 497228 498721 
3928.655 488040 465948 434206 395568 354347 316346 287632 274900 282625 
3932.994 313063 363931 430690 506218 582124 650742 704337 736863 744563 
3937.334 727005 687711 633487 573995 518791 476032 451520 447208 461437 
3941.673 487774 517895 541781 552563 547421 528710 501773 473279 448866 
3946.013 432017 423659 422664 425815 429331 429463 424455 414207 399879 
3950.353 384193 369800 359255 354745 357995 369668 389731 417026 449098 
3954.692 482301 512753 536473 550207 552563 543672 526023 503133 479117 
3959.032 458286 443128 434637 432249 434007 436793 438584 438319 437092 
3963.371 437324 441503 452084 469398 491821 516303 539093 557174 569350 
3967.711 576550 581726 588361 598946 614109 631894 648386 658773 659403 
3972.051 647855 624860 592973 557539 524198 498688 485021 485353 498423 
3976.390 520383 545695 567459 579934 579436 565701 541980 513981 488902 
3980.730 472781 469166 478055 496830 520416 544269 564739 581195 594002 
3985.069 604288 612881 619352 622471 620845 614507 604918 595926 592044 
3989.409 597386 613114 637535 665410 689503 703740 703674 689071 662788 
3993.749 630667 599410 574028 557871 551169 552297 558734 568488 580730 
3998.088 595429 612881 632790 653264 671848 684823 
##END=
