##TITLE=ma_1 01 12:47:13 2026 (GMT+02:00)
##JCAMP-DX=5.01  $$ Nicolet v. 970
##DATATYPE=INFRARED SPECTRUM
##ORIGIN=Vojna akademija
##OWNER=Nicolet
##LONGDATE=2026/09/01
##TIME=12:47:39
##SPECTROMETER/DATA SYSTEM=Nicolet iS20
##DATA PROCESSING=
Ratio against background
%Transmittance->Absorbance
Truncated
ElementMultiply or ElementDivide
##COMMENTS=
Number of sample scans: 8
Collection length: 11,90 sec
Sample gain: 8,0
Background collected on: Tue Sep 01 12:38:26 2026 (GMT+02:00);
Number of background scans: 8
Background gain: 8,0
Sample spacing:  1,000
Number of scan points: 12415
Resolution points: 8286
Number of FFT points: 65536
Apodization: N-B strong;
Phase correction: Mertz;
Laser frequency: 15798,00 cm-1
Number of rejected sample scans: 0
Number of rejected background scans: 0
Bench serial number: BER2010005;
##RESOLUTION= 4,000
##XUNITS=1/CM
##YUNITS=ABSORBANCE
##FIRSTX=400.156891
##LASTX=4000.123047
##FIRSTY=0.000986
##MAXX=4000.123047
##MINX=400.156891
##MAXY=0.175587
##MINY=-0.010195
##XFACTOR=1.000000
##YFACTOR=1.000000E-009
##NPOINTS=7468
##DELTAX=0.482117
##ZPD=6100
##XYDATA=(X++(Y..Y))
400.157 986359 2118447 3799986 5828917 7873544 9567025 10636937 10932791 
404.014 10494788 9527837 8360216 7308224 6566864 6131560 5830562 5422465 
407.871 4725748 3713524 2540680 1493796 861211 832295 1400811 2375336 
411.728 3435336 4247747 4545574 4187658 3198715 1729790 -1954 -1806449 
415.585 -3534400 -5100931 -6470612 -7639750 -8618135 -9406399 -9963995 
418.959 -10195469 -9979830 -9247201 -8027290 -6422427 -4589512 -2707869 
422.334 -985381 384558 1284117 1714321 1836687 1911761 2208256 2865520 
426.191 3853470 4990552 6036367 6754004 6999170 6766523 6173972 5414514 
430.048 4676142 4099011 3728094 3527890 3412961 3303271 3151853 2958186 
433.905 2752600 2577109 2459166 2400156 2375236 2350749 2300781 2221211 
437.762 2128436 2045335 1988212 1958556 1938086 1899514 1819019 1689706 
441.619 1530471 1385022 1306317 1332306 1466833 1673307 1891194 2058884 
445.476 2132865 2103963 1998864 1873324 1785681 1787178 1899015 2114152 
449.333 2405920 2740830 3084007 3400571 3660191 3835251 3912711 3900441 
453.190 3828399 3741696 3679405 3663465 3685486 3706773 3662296 3484099 
457.047 3139104 2662046 2160569 1775999 1617298 1708500 2004123 2414283 
460.904 2842941 3198415 3418337 3474947 3381570 3182493 2939438 2718257 
464.761 2573876 2549079 2667846 2926294 3280368 3645255 3921872 4013927 
468.617 3870218 3497326 2959353 2349950 1773271 1314758 1013957 859784 
472.474 797439 762221 705333 614408 506417 414273 369900 398851 525193 
476.813 769158 1145163 1651521 2261477 2915920 3528458 4009512 4274014 
480.670 4271036 3995200 3490245 2831234 2099236 1360757 649349 -24120 
484.527 -655162 -1229816 -1714214 -2063284 -2236840 -2208491 -1974864 
487.902 -1552764 -978207 -297706 433841 1155229 1811666 2355380 2755501 
491.759 3006027 3130327 3176085 3200517 3253727 3359531 3511054 3674526 
495.616 3805067 3863231 3823351 3682780 3457245 3172613 2852179 2518117 
499.473 2190772 1891660 1646765 1475577 1376679 1314825 1226762 1038202 
503.330 693319 182441 -455288 -1135938 -1759988 -2222765 -2444661 -2387657 
507.187 -2060844 -1518096 -837383 -108401 593537 1211013 1705606 2060782 
511.044 2280529 2390494 2428844 2440473 2459233 2498088 2550245 2597575 
514.901 2624509 2628176 2625109 2638410 2684016 2752234 2804688 2789048 
518.758 2670680 2454034 2192604 1969373 1872725 1950468 2197066 2549912 
522.615 2915720 3195244 3313687 3246950 3025412 2724892 2436208 2244524 
526.471 2198998 2305012 2535681 2849444 3204556 3560894 3882788 4132126 
530.328 4269798 4267288 4110183 3808008 3389618 2898742 2382299 1883840 
534.185 1446553 1107092 896604 835615 924528 1139814 1431660 1739370 1998864 
538.524 2168960 2244857 2264508 2295285 2409485 2663479 3072127 3603256 
542.381 4186320 4739850 5188582 5483666 5609280 5572562 5394049 5096713 
546.238 4702736 4232490 3710282 3170678 2654778 2211653 1890063 1722937 
550.095 1723269 1875221 2140123 2463664 2790782 3077633 3293989 3428423 
553.952 3484400 3476684 3422278 3334789 3219477 3072627 2886200 2655011 
557.809 2383831 2091911 1810135 1573799 1415936 1355107 1392999 1512881 
561.666 1685548 1877484 2058418 2209055 2320968 2395192 2435808 2447603 
565.523 2433076 2392160 2323866 2227872 2104063 1954229 1781954 1594018 
569.380 1402639 1226762 1092975 1031394 1067763 1216728 1470656 1799754 
573.237 2150879 2464631 2688350 2792216 2780944 2696418 2605675 2574110 
577.094 2648344 2837104 3112405 3420709 3703799 3915085 4025397 4029176 
580.951 3934577 3752391 3486771 3134098 2693218 2180016 1640379 1149083 
584.808 791132 641683 731419 1036973 1483090 1972734 2411052 2732827 2919122 
589.147 2990814 2991281 2959887 2918289 2862819 2774509 2635943 2450236 
593.004 2242160 2051028 1907701 1822646 1776698 1732451 1644869 1485551 
596.861 1255173 984931 723819 519587 404655 383397 435865 527184 625324 
601.200 711406 782435 845209 906266 962615 1001636 1005156 961353 872134 
605.539 756512 643376 562184 531828 553558 611820 681372 740314 774934 
609.878 783000 771150 745957 708984 654625 573431 460077 320093 173226 48709 
614.699 -19780 -6328 97690 280636 512886 758039 979087 1151940 1266305 
619.038 1325493 1341646 1330445 1307513 1285147 1272121 1273151 1288604 
622.895 1313927 1338422 1348326 1326158 1257167 1132140 952852 732515 497693 
627.234 284117 128347 65610 119298 293268 568222 901053 1233109 1498617 
631.573 1648262 1658273 1540479 1336860 1110049 924296 822402 817821 891690 
635.912 1006252 1119383 1205331 1261453 1305586 1361356 1446154 1556141 
639.769 1666655 1739004 1737940 1648794 1486548 1293987 1125130 1032224 
643.626 1043915 1156624 1337159 1536489 1705007 1808372 1839815 1817222 
647.483 1776032 1752877 1775300 1849598 1961484 2079559 2170692 2210054 
651.340 2190439 2123475 2037545 1966344 1935124 1954295 2012978 2085452 
655.197 2138126 2144619 2095273 2001061 1888099 1788109 1726463 1710595 
659.054 1729557 1758233 1771607 1753077 1704874 1646665 1609682 1623650 
662.911 1704175 1848001 2032285 2223143 2383998 2484625 2500621 2416083 
666.767 2225007 1949669 1650989 1416800 1311701 1331708 1422651 1525117 
670.624 1604460 1646532 1654348 1642408 1631066 1641643 1688774 1777529 
674.481 1901777 2049297 2203027 2347551 2469896 2559278 2607742 2611209 
678.338 2570143 2491356 2391761 2295918 2229670 2215616 2262443 2361876 
682.195 2491790 2624376 2735462 2812492 2857749 2884099 2905012 2924193 
686.052 2928496 2890603 2781311 2580443 2292954 1953097 1620823 1360026 
689.909 1223672 1238791 1399082 1670114 2002193 2349516 2680782 2987644 
693.766 3278832 3571184 3874598 4183977 4476839 4722867 4893732 4974933 
697.623 4973459 4916151 4843471 4794120 4797939 4864714 4984686 5132922 
701.480 5280034 5401698 5484740 5530813 5555345 5583268 5640933 5752995 
705.337 5937197 6201868 6545336 6955398 7411482 7885286 8348495 8777102 
709.194 9156893 9489634 9793383 10102296 10455890 10893276 11441172 12106472 
713.051 12876163 13722346 14612740 15519146 16428204 17343064 18279072 
716.425 19252046 20269038 21319804 22376576 23396792 24333862 25149496 
719.800 25815400 26319478 26660670 26846168 26886952 26796192 26588378 
723.175 26277304 25875814 25395892 24848396 24248224 23613298 22965710 
726.550 22329344 21723512 21159228 20637716 20150738 19685938 19231612 
729.925 18781392 18336442 17904344 17494236 17115082 16771454 16462617 
733.300 16183263 15925502 15680639 15442266 15209137 14987656 14792993 
736.674 14645502 14568640 14580187 14683167 14860945 15075740 15275919 
740.049 15401549 15403884 15256562 14963751 14559217 14098992 13646741 
743.424 13253510 12953920 12757505 12651843 12609544 12600471 12599993 
746.799 12593410 12576629 12551731 12519707 12477285 12413523 12313910 
750.174 12167701 11971471 11735158 11478969 11229629 11008672 10824752 
753.548 10669536 10521571 10354688 10150049 9906488 9643616 9397698 9206200 
757.405 9100113 9090131 9165826 9297622 9448760 9583250 9671533 9695995 
761.262 9649850 9534881 9359608 9139533 8896402 8655132 8443217 8281925 
765.119 8181601 8140545 8147365 8189029 8257239 8354068 8490754 8681193 
768.976 8930528 9228301 9543417 9832527 10045087 10141808 10103822 9938048 
772.833 9672922 9349587 9011676 8692889 8414265 8184201 8000055 7853638 
776.690 7734557 7635168 7549085 7472761 7404573 7342865 7285581 7229652 
780.547 7171371 7107205 7035672 6957587 6875442 6793043 6711872 6630009 
784.404 6540795 6435726 6306846 6151220 5972536 5781737 5594780 5426491 
788.261 5289090 5189253 5129167 5108011 5123467 5172218 5249280 5347353 
792.118 5459372 5579073 5704480 5838252 5984394 6141742 6298173 6426377 
795.975 6491082 6456341 6304190 6046009 5730533 5429478 5220808 5162696 
799.832 5270442 5511551 5814846 6101887 6304628 6392986 6381016 6317605 
803.689 6262606 6263043 6340164 6481867 6653324 6810680 6920115 6964758 
807.546 6947823 6886483 6807011 6735259 6692793 6696528 6755586 6869046 
811.402 7025806 7205092 7378217 7514191 7590287 7596727 7540960 7444951 
815.259 7337642 7245587 7183296 7151329 7137013 7121115 7084538 7016714 
819.116 6917287 6796880 6670585 6555427 6462764 6395979 6349275 6311049 
822.973 6267716 6208186 6128065 6030488 5924097 5819447 5724389 5641571 
826.830 5568534 5501182 5436926 5378651 5333533 5310187 5312300 5333667 
830.687 5357148 5357450 5308040 5191935 5008283 4776331 4529067 4309418 
834.544 4156880 4096636 4137344 4267723 4459800 4673396 4868735 5012674 
838.401 5086857 5092690 5050250 4993200 4956098 4967158 5036070 5152570 
842.258 5290935 5421996 5526752 5603406 5669567 5753431 5880266 6056761 
846.115 6265531 6467203 6616552 6674353 6626510 6485129 6286642 6073494 
849.972 5881374 5729761 5620290 5543901 5489705 5453333 5435718 5438671 
853.829 5458265 5478364 5474673 5423539 5312267 5147641 4956936 4780485 
857.686 4654641 4601661 4620414 4688635 4770837 4833855 4859520 4849870 
861.543 4825780 4817002 4854729 4957639 5128597 5353525 5607401 5858134 
865.400 6074738 6234673 6325135 6348401 6319185 6264220 6212522 6188424 
869.256 6204288 6256051 6324900 6382428 6402233 6367499 6277128 6144599 
873.113 5994641 5854137 5744131 5679436 5666008 5703675 5788687 5915129 
876.970 6071243 6236992 6384479 6478672 6485432 6386026 6182408 5903407 
880.827 5598003 5328099 5146199 5082834 5136778 5277015 5452427 5609515 
884.684 5711766 5746683 5728586 5688030 5662014 5677254 5743191 5851585 
888.541 5983689 6118824 6243547 6355125 6458829 6561415 6663519 6755653 
892.398 6818791 6832591 6781668 6664562 6496161 6305333 6123965 5980699 
896.255 5892760 5861492 5876135 5917850 5967967 6010330 6036098 6041877 
900.112 6026691 5989568 5928263 5838521 5717775 5565514 5386736 5190996 
903.969 4992898 4810134 4659564 4555719 4506736 4513130 4566434 4651224 
907.826 4747387 4832582 4889778 4908644 4891152 4849334 4804237 4779446 
911.683 4793081 4854595 4960891 5097484 5242472 5375330 5481384 5555714 
915.540 5603205 5634689 5662551 5695718 5737684 5787277 5841107 5896287 
919.397 5951608 6007104 6061936 6111733 6147959 6159184 6135223 6071982 
923.254 5974921 5859007 5747455 5665270 5630259 5650198 5719320 5819782 
927.110 5924904 6009321 6051318 6039727 5975593 5872340 5752424 5641403 
930.967 5565783 5546586 5595284 5712941 5889301 6105450 6334414 6547791 
934.824 6717256 6818454 6836294 6767667 6624290 6430480 6222774 6039962 
938.681 5914256 5865354 5892794 5977138 6085288 6184021 6247748 6266741 
942.538 6247715 6209397 6172493 6151387 6151488 6169905 6201767 6246135 
946.395 6308662 6399308 6525188 6682967 6855110 7011629 7120879 7157392 
950.252 7113099 6999170 6844238 6681722 6540256 6436701 6373483 6342551 
954.109 6331523 6330279 6331859 6332666 6330313 6321269 6303417 6278036 
957.966 6253598 6244589 6268724 6340164 6462092 6623179 6798563 6958563 
961.823 7074940 7131119 7126167 7074536 7000281 6928229 6880424 6869214 
965.680 6897357 6958260 7039613 7124618 7195457 7238175 7243431 7210246 
969.537 7145501 7061940 6972940 6888234 6811319 6739129 6667624 6595357 
973.394 6527778 6477024 6456509 6473728 6524212 6590580 6648278 6672167 
977.251 6648917 6580757 6486676 6392381 6320731 6282205 6270271 6264589 
981.108 6238707 6172930 6059046 5904617 5728150 5554405 5404684 5293014 
984.964 5224698 5198307 5208232 5248374 5313507 5399417 5500477 5609280 
988.821 5713814 5798862 5848361 5847253 5787143 5669802 5509470 5331419 
992.678 5168094 5052228 5005400 5032685 5119545 5237475 5349365 5423237 
996.535 5441824 5405053 5328971 5238548 5159712 5110224 5098021 5121288 
1000.392 5173157 5243913 5323839 5403375 5472022 5518765 5534941 5516484 
1004.249 5468465 5404550 5344904 5307638 5303881 5332291 5380898 5430350 
1008.106 5463231 5470613 5454574 5425988 5398578 5383784 5385427 5401229 
1011.963 5426223 5457460 5497155 5550882 5623982 5715929 5817734 5912745 
1015.820 5980464 6005055 5980094 5911166 5812092 5699915 5587900 5481619 
1019.677 5378014 5268899 5146367 5006573 4853389 4698181 4558398 4453105 
1023.534 4399212 4408350 4482664 4614520 4784840 4967593 5130776 5244652 
1027.391 5289492 5260783 5172755 5053904 4943094 4875839 4875068 4945575 
1031.249 5072240 5224731 5366239 5467593 5512524 5503095 5456956 5402067 
1035.106 5365836 5365635 5403477 5464707 5519940 5533162 5473767 5325147 
1038.964 5091986 4800787 4497797 4235735 4059477 3996838 4049042 4189665 
1042.821 4372235 4547047 4674133 4736702 4744707 4731074 4739314 4804103 
1046.678 4942994 5146166 5381469 5599983 5754405 5809507 5749805 5582698 
1050.536 5336619 5052864 4773583 4538676 4377691 4304097 4318119 4404401 
1054.393 4537371 4683310 4811206 4896815 4926640 4901272 4830437 4730571 
1058.251 4617467 4504191 4399681 4309753 4240554 4197761 4187423 4211378 
1062.108 4265515 4339671 4419229 4491905 4551367 4600389 4648043 4705516 
1065.965 4778877 4863943 4946848 5008216 5030707 5004361 4931231 4822363 
1069.823 4694329 4560943 4430978 4307410 4189397 4078140 3977310 3894255 
1073.680 3836020 3805434 3799117 3807106 3816432 3814627 3792165 3744437 
1077.538 3672020 3578901 3472442 3364774 3272155 3211633 3199983 3245648 
1081.395 3345240 3482095 3631723 3768501 3874197 3945009 3989783 4025665 
1085.253 4067437 4121087 4178826 4224560 4239282 4211479 4142930 4048674 
1089.110 3949189 3863565 3801791 3760981 3728462 3687993 3627078 3541085 
1092.967 3436004 3325908 3231227 3172980 3168608 3228423 3350249 3516766 
1096.825 3695144 3845681 3926419 3908063 3783374 3570983 3310282 3049804 
1100.682 2833936 2686450 2608075 2580142 2577076 2577643 2575309 2577309 
1104.540 2601108 2663012 2769273 2914119 3082405 3255096 3416567 3558556 
1108.397 3677934 3773314 3841369 3873895 3861560 3798649 3688427 3544759 
1112.255 3388416 3243812 3130460 3059347 3033521 3049536 3100692 3179890 
1116.112 3279767 3391054 3501835 3596708 3658387 3672521 3632023 3539916 
1119.969 3409054 3259169 3114074 2994083 2915787 2888535 2914486 2988478 
1123.827 3099057 3231327 3367278 3489944 3587587 3654744 3695277 3719673 
1127.684 3743367 3779597 3836488 3913881 4003995 4093592 4168756 4219441 
1131.542 4241189 4236304 4211947 4178525 4146376 4124900 4120853 4137879 
1135.399 4176149 4233059 4303762 4381239 4457657 4526121 4580699 4618807 
1139.256 4640809 4651459 4657688 4668640 4693559 4738276 4804572 4888471 
1143.114 4981536 5072676 5152067 5214771 5262627 5303546 5349701 5413440 
1146.971 5501551 5613677 5740538 5867571 5976970 6053166 6088178 6081962 
1150.829 6043322 5986813 5931386 5893835 5887487 5918656 5985503 6078232 
1154.686 6181937 6280490 6359732 6410539 6431186 6425536 6401392 6366187 
1158.544 6325875 6283415 6238841 6191919 6143490 6095503 6050310 6009321 
1162.401 5971427 5933133 5890947 5842988 5792213 5746078 5715559 5710322 
1166.258 5736476 5792549 5870560 5956580 6034687 6091437 6117480 6109079 
1170.116 6067312 5995917 5899646 5781938 5645364 5491350 5321390 5138085 
1173.973 4946446 4754757 4574336 4417555 4296467 4219475 4188093 4197092 
1177.831 4235468 4289239 4343888 4389238 4419597 4434459 4436334 4429271 
1181.688 4416785 4401020 4383581 4365776 4348439 4332241 4316312 4298174 
1185.546 4274148 4241691 4200438 4154338 4110417 4077470 4062052 4066366 
1189.403 4086602 4114464 4140555 4157516 4162902 4159489 4153669 4151729 
1193.260 4157282 4169927 4185851 4199702 4207966 4210441 4209805 4210709 
1197.118 4216664 4228341 4242795 4254908 4259090 4252465 4236003 4215494 
1200.975 4198364 4192710 4204486 4234832 4280807 4336993 4397171 4457155 
1204.833 4516411 4577015 4642952 4716101 4795393 4874565 4944234 4993434 
1208.690 5013277 4999669 4954120 4883009 4795125 4699755 4604675 4515106 
1212.547 4435497 4369993 4323004 4297973 4295999 4314304 4345762 4381205 
1216.405 4411329 4431279 4441221 4446611 4454511 4470780 4496993 4529871 
1220.262 4563756 4593524 4617969 4640407 4666463 4700727 4743200 4788123 
1224.120 4824440 4840791 4830169 4793316 4739013 4681300 4635082 4611339 
1227.977 4613817 4639603 4681367 4730136 4777637 4818342 4848463 4865853 
1231.835 4868467 4854729 4824440 4779078 4722834 4661975 4603838 4556255 
1235.692 4525284 4515440 4527895 4561378 4610602 4667602 4723638 4770267 
1239.549 4802328 4820487 4831442 4846554 4877849 4934783 5019378 5126149 
1243.407 5241767 5351378 5441455 5504604 5540646 5555681 5557862 5553466 
1247.264 5545009 5530947 5508094 5474941 5433873 5392405 5361173 5349466 
1251.122 5362515 5397941 5446992 5494974 5527256 5533934 5512222 5467962 
1254.979 5412468 5360938 5324778 5310623 5317533 5339369 5367681 5395827 
1258.837 5421560 5447461 5478699 5519739 5571219 5629285 5687225 5738222 
1262.694 5778211 5807962 5832141 5855480 5882449 5912946 5944856 5974383 
1266.551 5998907 6019233 6038920 6062877 6094932 6136500 6186004 6239984 
1270.409 6294878 6348401 6400081 6449615 6496396 6538306 6572011 6595391 
1274.266 6608242 6613692 6617292 6625904 6643971 6672604 6709382 6751480 
1278.124 6796039 6843632 6896953 6959068 7029577 7103432 7169923 7218197 
1281.981 7239759 7234099 7209168 7179759 7162411 7167564 7197209 7242724 
1285.839 7288883 7318805 7321399 7295790 7252629 7209943 7188484 7206002 
1289.696 7270991 7382126 7528384 7693780 7859543 8010012 8136190 8235998 
1293.553 8314213 8380112 8443115 8509609 8580539 8651886 8716958 8770138 
1297.411 8810644 8843072 8876923 8921937 8983159 9058700 9139026 9210093 
1301.268 9257342 9271828 9252366 9205253 9141563 9073925 9012014 8962119 
1305.126 8926131 8904485 8896267 8899785 8911993 8927484 8938476 8936278 
1308.983 8913853 8867995 8801481 8722130 8640462 8566177 8506094 8462035 
1312.840 8431156 8407610 8385010 8358628 8326540 8288309 8244913 8196592 
1316.698 8143381 8084540 8020306 7952065 7883397 7819732 7766770 7730071 
1320.555 7712533 7714219 7731454 7758877 7789607 7817978 7841324 7859846 
1324.413 7876379 7894430 7915755 7938871 7958679 7969512 7967656 7955440 
1328.270 7942347 7943324 7975486 8051831 8176164 8341538 8531944 8727742 
1332.128 8910540 9070000 9205253 9323418 9434165 9546228 9662148 9778641 
1335.985 9887200 9979545 10049902 10099447 10135024 10168331 10212767 
1339.360 10278819 10371825 10491394 10632557 10788983 10953077 11118729 
1342.735 11278628 11425286 11552529 11655916 11734852 11793305 11838418 
1346.111 11877815 11918340 11964454 12018306 12081192 12154719 12240526 
1349.486 12339612 12451097 12571069 12692303 12806882 12908042 12992634 
1352.861 13062593 13123650 13183964 13250162 13326894 13415941 13517858 
1356.236 13634570 13770499 13932200 14127299 14361184 14637105 14956241 
1359.612 15322253 15745845 16248098 16858628 17608224 18510640 19546066 
1362.987 20654428 21752740 22764436 23637054 24352260 24912922 25335160 
1366.362 25642640 25868710 26058728 26266602 26554070 26973992 27558244 
1369.737 28318880 29251118 30349916 31621382 33090774 34797780 36776392 
1373.113 39023784 41462172 43926760 46208972 48114180 49526856 50414360 
1376.488 50784296 50647448 49999712 48834220 47172408 45088628 42712388 
1379.863 40187268 37647916 35186192 32847046 30650340 28602968 26708234 
1383.238 24966226 23365044 21877922 20464364 19081118 17695394 16300417 
1386.614 14922495 13612722 12422490 11379467 10478936 9697351 9010153 
1389.989 8401225 7864941 7400158 7005029 6671796 6388548 6141373 5920940 
1393.846 5723516 5551586 5409146 5295697 5205583 5131245 5068117 5016662 
1397.704 4980866 4963203 4960086 4960421 4950233 4920541 4870879 4809498 
1401.561 4745980 4689506 4643790 4607588 4577685 4552170 4533989 4530909 
1405.419 4550864 4595667 4659095 4729198 4793617 4845313 4885791 4923288 
1409.276 4968230 5028528 5104827 5189823 5273091 5346782 5409549 5466989 
1413.133 5526585 5592599 5663592 5733723 5797149 5852928 5908278 5977575 
1416.991 6077997 6220085 6399476 6592094 6766119 6900016 6998295 7083663 
1420.848 7182285 7310448 7474750 7675771 7913124 8187745 8500249 8848009 
1424.706 9221667 9606623 9990123 10366565 10742925 11137799 11579139 
1428.081 12095570 12705575 13408252 14182823 14997911 15827520 16661679 
1431.456 17505136 18367792 19255648 20166774 21095534 22044552 23028910 
1434.831 24083722 25256240 26581968 28042718 29553620 31001036 32308034 
1438.207 33470646 34536880 35568480 36621248 37730420 38910376 40154668 
1441.582 41446024 42764084 44091104 45416232 46731284 48028088 49301052 
1444.957 50548492 51780304 53019404 54297828 55642764 57058232 58518892 
1448.332 59977400 61393352 62758872 64101160 65471232 66917868 68465464 
1451.708 70097152 71756936 73374392 74881144 76243248 77460656 78554888 
1455.083 79549656 80451496 81238272 81861448 82292464 82560256 82724744 
1458.458 82830224 82875048 82836600 82693720 82444024 82101000 81683824 
1461.833 81202000 80646664 79983112 79155024 78099344 76773992 75183680 
1465.209 73365912 71359800 69178696 66803120 64217388 61432468 58501108 
1468.584 55489240 52464464 49462840 46453864 43355816 40060260 36509944 
1471.959 32794840 29195088 26059326 23586710 21744588 20348200 19189464 
1475.334 18132016 17116702 16149182 15260406 14475314 13791328 13183178 
1478.710 12617424 12068587 11525853 10994772 10489391 10024199 9604862 
1482.085 9227692 8883348 8564386 8269531 8002283 7766129 7559840 7374274 
1485.942 7194346 7004255 6793616 6562827 6324564 6098863 5905893 5759106 
1489.800 5659832 5599278 5562997 5538330 5516517 5491518 5458299 5412568 
1493.657 5350472 5269771 5170509 5055211 4928416 4795125 4659229 4524078 
1497.515 4392987 4271270 4165076 4078675 4011352 3957013 3905689 3847987 
1501.372 3778294 3696313 3605261 3509718 3412226 3309981 3194643 3052907 
1505.229 2870523 2644977 2403621 2209721 2118114 2117914 2145451 2147849 
1509.087 2107892 2032252 1939551 1850962 1785980 1754607 1756769 1781455 
1512.944 1813429 1837186 1840081 1814527 1755805 1663262 1541843 1407459 
1516.802 1283918 1194233 1152106 1158518 1205929 1283619 1380667 1484021 
1520.659 1576160 1639049 1660435 1641942 1595115 1532798 1462544 1387781 
1524.516 1311568 1237528 1169481 1110082 1057267 1005289 947539 880999 
1528.374 808560 737095 674403 626917 596922 583783 585243 599841 628377 
1532.714 671881 728100 785821 827017 837009 807697 739053 634051 498522 
1537.053 339358 166364 -2683 -143214 -223795 -221842 -143347 -32602 56165 
1541.393 94607 83373 39928 -14015 -55429 -64209 -28262 52520 163282 281167 
1546.214 383961 459115 501541 513118 498655 465550 420939 370729 318568 
1550.554 265418 211579 158310 109057 70150 48908 50830 76115 117641 163282 
1555.376 199380 214993 202098 153603 62429 -72226 -223663 -324989 -314560 
1559.715 -208594 -72259 47649 135572 192385 222949 233359 230674 221988 
1564.055 213833 211579 217977 233359 256500 287234 326128 374443 431884 
1568.395 494674 553425 597054 619086 623267 620148 619883 626983 639593 
1572.734 650941 651771 633155 588096 516535 427573 342442 285477 269695 
1577.074 288461 323939 360117 389897 413577 436362 463892 499816 544402 
1581.413 594101 642745 682998 709913 721098 717878 704371 687080 674270 
1585.753 672412 686250 716750 761192 813406 865428 909121 938707 951458 
1590.093 948569 933095 909354 880899 851086 822801 799099 784029 780776 
1594.432 791929 817556 854804 898198 941164 978256 1005223 1020899 1025947 
1598.772 1022360 1012396 999212 985894 975600 971150 974969 987987 1010404 
1603.111 1041258 1078924 1121443 1166890 1212342 1254010 1286842 1305287 
1606.969 1304555 1282655 1242380 1190612 1136160 1086431 1045277 1011466 
1610.826 981179 949997 915131 876417 835250 794053 754155 715157 675365 
1615.166 632624 586172 537833 492485 454339 423560 396530 368010 333522 
1619.505 290682 238265 175811 103390 21902 -66196 -154675 -233333 -291547 
1623.845 -323135 -329492 -317506 -296978 -276978 -264329 -262706 -271084 
1627.703 -284329 -294958 -296249 -285852 -266183 -242804 -222471 -210880 
1631.560 -212006 -228299 -260653 -309295 -371671 -442015 -507648 -548287 
1635.417 -543621 -490835 -412389 -341543 -303269 -305256 -341080 -397227 
1639.275 -456380 -501988 -520720 -508144 -469355 -418380 -372399 -347701 
1643.132 -355382 -400174 -480376 -588657 -713055 -833051 -921704 -952287 
1646.990 -912909 -816615 -693670 -572543 -469057 -388951 -332240 -296150 
1650.847 -276846 -268137 -260388 -239029 -193592 -134702 -94156 -92666 
1654.704 -125361 -178125 -237307 -291581 -332306 -353363 -351906 -329359 
1658.562 -291216 -246381 -204289 -172461 -155768 -153317 -160471 -168851 
1662.419 -170076 -160372 -142055 -121849 -107142 -103067 -111249 -131787 
1666.277 -164181 -207601 -261050 -322837 -388256 -449131 -494442 -515557 
1670.134 -511156 -488452 -459425 -434368 -419241 -415004 -417652 -420399 
1673.992 -415236 -396665 -366804 -337173 -322307 -332670 -369453 -426126 
1677.849 -492423 -557387 -610231 -642258 -650033 -637064 -613209 -589948 
1681.706 -578333 -586540 -619429 -675508 -742462 -797962 -821873 -812977 
1685.564 -783476 -745075 -703362 -660323 -616749 -573866 -534322 -501426 
1689.421 -477530 -463331 -456711 -454692 -454162 -453500 -452971 -454427 
1693.279 -461212 -477795 -509236 -558975 -625054 -697077 -759562 -800013 
1697.136 -814498 -805503 -775472 -724401 -651787 -562516 -471605 -403021 
1700.994 -372300 -377861 -409277 -457472 -517609 -587367 -664723 -745174 
1704.851 -819492 -876074 -905205 -904511 -879447 -840691 -799649 -765714 
1708.708 -745075 -741271 -753873 -779804 -813209 -848330 -878984 -901072 
1712.566 -911950 -910859 -898658 -878984 -857887 -842443 -840624 -856762 
1716.423 -889301 -926763 -951362 -946303 -906825 -842972 -772263 -710243 
1720.281 -666377 -645832 -649339 -674118 -713253 -756354 -792373 -811224 
1724.138 -808611 -785923 -750665 -711732 -678981 -660521 -661183 -682488 
1727.995 -722119 -773884 -827958 -873925 -903420 -913538 -907652 -892806 
1731.853 -877926 -868601 -864963 -859904 -843105 -809736 -768096 -734192 
1735.710 -720961 -733034 -769055 -823163 -885729 -944286 -984323 -996257 
1739.568 -980951 -951097 -923920 -914893 -930334 -968487 -1021810 -1080778 
1743.425 -1137557 -1187819 -1231600 -1271478 -1309568 -1346763 -1380751 
1746.800 -1407503 -1422530 -1422266 -1404531 -1369422 -1317661 -1250565 
1750.176 -1170240 -1081737 -992951 -913604 -852463 -813407 -796308 -797896 
1754.033 -813043 -836292 -861524 -882753 -893500 -889631 -870353 -839765 
1757.891 -804345 -770973 -744678 -727576 -719340 -716859 -715569 -709978 
1761.748 -696978 -677261 -655757 -638255 -629157 -630083 -639545 -654930 
1765.605 -672266 -688443 -700782 -708291 -710772 -708688 -702238 -690494 
1769.463 -672034 -645534 -610893 -571120 -534057 -510527 -510725 -536804 
1773.320 -582106 -635344 -686524 -728602 -758636 -777555 -790289 -803849 
1777.178 -826007 -862119 -912612 -971033 -1024190 -1054766 -1047031 -994736 
1781.035 -905668 -799715 -699690 -624293 -584356 -580550 -603746 -637428 
1784.892 -663995 -668428 -644905 -596665 -533329 -466574 -406629 -361772 
1788.750 -336577 -333035 -350350 -386104 -434931 -489345 -540477 -580914 
1792.607 -607749 -622572 -630116 -634517 -637627 -640670 -645236 -654566 
1796.465 -674648 -712360 -774082 -861623 -971000 -1089636 -1197732 -1273955 
1800.322 -1299195 -1265795 -1180550 -1064021 -941013 -836854 -771073 -753509 
1804.180 -784832 -855373 -947890 -1037776 -1098857 -1110127 -1060749 -955693 
1808.037 -816086 -675607 -568969 -522441 -545540 -627171 -739187 -848032 
1811.894 -929970 -977017 -997678 -1008587 -1025644 -1055956 -1096643 
1815.270 -1136004 -1159963 -1157947 -1127940 -1076779 -1018042 -965413 
1818.645 -927788 -908875 -908214 -924217 -956453 -1005943 -1073242 -1154841 
1822.502 -1243230 -1324433 -1381312 -1399313 -1371767 -1304646 -1216236 
1825.878 -1130122 -1065773 -1033115 -1033446 -1060649 -1105434 -1154312 
1829.253 -1193239 -1209892 -1199186 -1164953 -1118687 -1073341 -1038272 
1832.628 -1018967 -1015496 -1022471 -1030438 -1028058 -1005546 -958371 
1836.003 -889764 -810563 -737434 -686921 -672001 -696349 -754700 -832919 
1839.861 -914000 -980587 -1017149 -1013083 -963958 -873693 -757015 -639843 
1843.718 -555302 -528563 -567513 -657477 -770213 -875876 -953478 -993249 
1847.576 -994835 -966504 -921605 -876239 -843998 -834110 -849685 -888375 
1851.433 -943956 -1007596 -1071127 -1127048 -1171363 -1205068 -1233946 
1854.808 -1264903 -1304613 -1355450 -1413349 -1468830 -1510040 -1526912 
1858.183 -1516148 -1482633 -1437689 -1397100 -1373914 -1375466 -1400237 
1861.559 -1438779 -1476920 -1500761 -1501323 -1476260 -1429036 -1368695 
1864.934 -1306000 -1250961 -1210255 -1186894 -1180153 -1186035 -1197798 
1868.309 -1207645 -1206819 -1188612 -1148958 -1086992 -1005182 -907487 
1871.684 -801997 -697805 -606128 -537565 -498579 -490636 -508607 -543687 
1875.542 -585315 -625054 -660885 -695985 -737434 -792306 -863839 -948617 
1879.399 -1037445 -1117200 -1176618 -1209363 -1216699 -1205167 -1184879 
1882.775 -1164556 -1148397 -1135178 -1119877 -1095354 -1057080 -1004753 
1886.150 -943195 -882687 -835565 -814961 -830240 -883150 -963660 -1049708 
1890.007 -1115481 -1136566 -1101138 -1013348 -891020 -759496 -646162 -574660 
1893.865 -556824 -591139 -661911 -747159 -826007 -888904 -939228 -989480 
1897.722 -1053477 -1138384 -1240752 -1347093 -1438217 -1495346 -1507893 
1901.097 -1475665 -1408131 -1321691 -1235697 -1167497 -1128337 -1123380 
1904.473 -1148529 -1194428 -1244353 -1280695 -1286807 -1254166 -1184978 
1907.848 -1095189 -1010505 -957048 -954403 -1006207 -1097568 -1200541 
1911.223 -1286741 -1335796 -1342700 -1317265 -1277490 -1243858 -1229717 
1914.598 -1238373 -1264606 -1298402 -1329058 -1349604 -1357366 -1351519 
1917.974 -1330610 -1291663 -1232195 -1152296 -1059823 -969016 -899783 
1921.349 -872966 -903320 -989480 -1109334 -1226413 -1301408 -1306430 
1924.724 -1235069 -1100609 -932252 -764524 -631406 -557222 -552456 -614003 
1928.581 -727444 -872734 -1027529 -1172454 -1294372 -1386267 -1447464 
1931.957 -1482072 -1497756 -1502511 -1506705 -1520738 -1552962 -1610703 
1935.332 -1698042 -1813247 -1949895 -2095271 -2232160 -2342213 -2412238 
1938.707 -2435336 -2412964 -2352363 -2264529 -2160687 -2051775 -1947289 
1942.082 -1853830 -1777477 -1721277 -1686953 -1674806 -1681771 -1702432 
1945.458 -1727251 -1745039 -1745501 -1721871 -1674938 -1612486 -1549958 
1948.833 -1505153 -1492902 -1518856 -1577327 -1647146 -1696359 -1689659 
1952.208 -1595484 -1396208 -1096444 -724037 -325883 44898 333522 503398 
1956.066 538364 449463 266877 31213 -219358 -456380 -665583 -842079 -985381 
1960.405 -1097006 -1180385 -1238175 -1282974 -1332262 -1407404 -1527374 
1963.780 -1700155 -1914598 -2143048 -2348112 -2488413 -2534039 -2473423 
1967.156 -2314562 -2081982 -1804338 -1507893 -1208174 -918795 -656683 
1970.531 -447608 -326049 -321479 -442643 -665484 -936219 -1184647 -1343063 
1974.388 -1368497 -1256611 -1042866 -789231 -560498 -404212 -336114 -345847 
1978.246 -408284 -503875 -623201 -769320 -951097 -1174304 -1430390 -1704544 
1982.103 -1968498 -2192963 -2354967 -2439323 -2438631 -2353220 -2183568 
1985.478 -1932676 -1612188 -1250862 -892872 -601496 -436586 -436851 -608246 
1989.336 -916381 -1288392 -1624403 -1829909 -1833704 -1619880 -1234673 
1992.711 -774182 -353396 -68582 18621 -102968 -402458 -820021 -1290672 
1996.568 -1755863 -2171369 -2512396 -2765687 -2925271 -2985133 -2942418 
1999.944 -2799695 -2572019 -2294820 -2021072 -1813082 -1730584 -1808033 
2003.319 -2048345 -2415896 -2856217 -3297835 -3673497 -3937735 -4067972 
2006.694 -4065214 -3950704 -3752900 -3498279 -3212100 -2920203 -2645762 
2010.069 -2414907 -2249498 -2161479 -2154588 -2222864 -2350353 -2515295 
2013.445 -2690943 -2847692 -2954529 -2991550 -2948276 -2837388 -2694236 
2016.820 -2574028 -2538520 -2630678 -2858159 -3187662 -3555696 -3879252 
2020.195 -4085467 -4124690 -3979072 -3660914 -3202233 -2642304 -2014179 
2023.570 -1352874 -700120 -108069 356900 633885 686118 514611 155857 -323698 
2027.910 -846114 -1349009 -1790809 -2154522 -2444628 -2663512 -2804370 
2031.285 -2848811 -2772798 -2562599 -2230347 -1816645 -1374442 -960453 
2034.661 -615293 -353197 -172064 -54270 21603 72934 108394 131727 135605 
2039.000 107732 34692 -97204 -292739 -539120 -805304 -1049345 -1225487 
2042.858 -1302135 -1276698 -1178699 -1062930 -987100 -992984 -1084910 
2046.233 -1230014 -1367671 -1438548 -1406314 -1273691 -1081010 -887912 
2049.608 -748449 -687814 -700881 -758305 -823328 -863178 -863376 -823527 
2053.465 -754700 -669321 -577275 -483090 -390143 -301812 -223332 -161134 
2057.323 -118272 -93129 -81535 -77924 -80872 -94421 -126089 -178588 -247407 
2061.662 -315851 -361275 -362467 -311613 -219391 -118007 -47644 -41713 
2065.520 -117709 -268932 -467468 -675706 -860631 -997645 -1075589 -1094461 
2069.377 -1060749 -986009 -886920 -788966 -722185 -717289 -794225 -952089 
2073.235 -1163367 -1376589 -1535001 -1590434 -1524799 -1356276 -1135277 
2076.610 -925474 -780135 -729793 -773090 -881232 -1012719 -1132633 -1219937 
2080.467 -1270784 -1294603 -1303324 -1303919 -1296519 -1275442 -1234441 
2083.843 -1171925 -1092049 -1001083 -908214 -820749 -743752 -684208 -651059 
2087.700 -654632 -704983 -806792 -953213 -1126552 -1300021 -1446110 -1542298 
2091.557 -1578978 -1557452 -1488478 -1384351 -1256082 -1111350 -955990 
2094.933 -796970 -645005 -513936 -417486 -364321 -353628 -374617 -410932 
2098.790 -445689 -466773 -470877 -460617 -442312 -419771 -393553 -360348 
2102.647 -317705 -266647 -215384 -176137 -163883 -188425 -252209 -348330 
2106.505 -465945 -592231 -717653 -838376 -953874 -1062699 -1161913 -1243032 
2110.362 -1296156 -1313235 -1292984 -1241743 -1174304 -1108309 -1056451 
2113.738 -1023992 -1005282 -987166 -955759 -903056 -832125 -758835 -706207 
2117.595 -697176 -748812 -863541 -1028322 -1217326 -1400700 -1548175 
2120.970 -1638135 -1662693 -1624237 -1533681 -1405621 -1255322 -1095156 
2124.345 -935128 -784666 -651423 -544613 -474319 -449495 -476305 -556659 
2128.203 -685631 -851273 -1035561 -1217260 -1371602 -1476821 -1515058 
2131.578 -1475566 -1359017 -1176981 -953279 -716925 -502319 -339093 -249328 
2135.436 -244493 -322042 -470645 -672100 -905371 -1152197 -1394094 -1614829 
2139.293 -1798959 -1935051 -2014376 -2038946 -2018136 -1968663 -1911036 
2142.668 -1863464 -1832648 -1816975 -1805294 -1785100 -1751276 -1714808 
2146.043 -1700848 -1743751 -1870788 -2087489 -2368874 -2661701 -2892062 
2149.419 -2992439 -2917175 -2658375 -2248938 -1756160 -1265531 -851438 
2152.794 -573238 -461874 -521647 -735846 -1073606 -1491417 -1934292 -2343795 
2156.651 -2661141 -2833998 -2836302 -2672502 -2381692 -2023281 -1659425 
2160.027 -1329586 -1051262 -823428 -642589 -516583 -466740 -512910 -670148 
2163.884 -926036 -1241875 -1557254 -1807901 -1944089 -1947223 -1833044 
2167.259 -1642162 -1427286 -1234210 -1088578 -998968 -958238 -949609 -955693 
2171.117 -963297 -962503 -948088 -918662 -875413 -824651 -776299 -739154 
2174.974 -717322 -704785 -684605 -636799 -544878 -407622 -240420 -77460 
2178.832 41419 85527 40557 -84947 -261017 -445589 -600305 -697441 -724302 
2183.171 -683017 -581841 -431919 -244824 -36180 175115 362206 497129 556444 
2187.511 527350 410890 224574 -6825 -252639 -487922 -693967 -861094 -983959 
2191.850 -1062599 -1100212 -1103253 -1084678 -1062038 -1052022 -1069111 
2195.226 -1117960 -1192016 -1275607 -1351817 -1404927 -1427682 -1421441 
2198.601 -1392707 -1348580 -1295330 -1236820 -1178534 -1130683 -1108276 
2201.976 -1127511 -1199715 -1321955 -1473882 -1616711 -1703323 -1694511 
2205.351 -1567819 -1330511 -1015000 -674780 -365778 -135463 -11861 -1292 
2209.209 -88922 -247871 -448668 -662076 -860631 -1024488 -1135475 -1182764 
2213.066 -1166208 -1098593 -1002802 -910793 -854745 -854084 -913372 -1016785 
2216.924 -1134715 -1232690 -1283338 -1274550 -1212502 -1118753 -1018769 
2220.299 -938137 -890756 -879546 -899022 -942038 -1003001 -1080183 -1174932 
2224.156 -1285452 -1404102 -1518294 -1609614 -1661703 -1664805 -1617767 
2227.531 -1526747 -1401955 -1252844 -1083951 -897666 -697176 -492059 -300752 
2231.389 -148315 -57583 -42773 -100881 -211641 -339689 -450587 -516517 
2235.246 -528464 -497024 -448899 -414077 -416262 -463562 -545904 -640108 
2239.104 -715370 -746166 -719538 -638388 -519992 -391798 -285422 -225054 
2242.961 -226610 -291481 -408549 -556758 -711632 -849454 -952320 -1010868 
2246.819 -1023562 -996191 -938996 -863211 -781160 -703528 -640406 -600040 
2250.676 -588624 -608411 -658668 -734754 -830240 -938534 -1054039 -1171297 
2254.533 -1284263 -1383162 -1454630 -1483624 -1455819 -1365095 -1215906 
2257.909 -1026967 -825346 -639843 -494310 -399479 -351641 -335418 -333167 
2261.766 -329293 -317573 -302044 -292673 -298998 -324658 -364718 -406530 
2265.624 -435229 -438076 -410568 -357766 -293302 -233366 -196341 -194916 
2269.481 -234426 -310586 -411429 -517675 -606029 -655757 -651853 -590113 
2273.338 -479714 -340981 -201342 -85775 -11861 15970 6593 -20807 -45656 
2277.678 -53011 -38102 -9045 17395 20775 -13783 -92666 -208694 -346112 
2282.018 -482494 -597128 -675706 -713154 -713386 -687517 -647817 -604805 
2285.875 -562649 -520356 -473492 -417222 -350880 -279130 -211376 -158186 
2289.732 -126288 -116218 -120392 -126884 -123473 -103697 -69840 -33430 -8548 
2294.072 -8184 -35915 -84218 -135066 -166731 -161664 -112707 -26340 79959 
2298.412 182606 260909 302884 308123 285311 250432 218209 198087 192684 
2302.751 197921 206573 210617 205545 190396 168850 146377 129938 125695 
2307.091 137030 165403 208628 263064 323674 385718 445947 502403 553359 
2311.430 597187 630069 647125 641982 610393 552098 473146 385884 305238 
2315.770 246620 221093 231967 275464 343537 426412 516435 610990 709946 
2320.110 814734 924395 1033752 1133369 1213604 1266538 1290631 1290199 
2323.967 1274546 1252980 1233208 1218389 1208355 1201410 1196393 1193469 
2327.824 1195131 1203537 1219220 1239854 1259991 1273483 1275643 1265773 
2331.682 1247464 1228457 1216993 1221014 1245138 1291196 1356536 1436547 
2335.539 1522823 1604460 1669748 1708766 1715785 1692965 1650656 1606655 
2339.397 1578521 1580317 1615069 1673108 1732318 1766883 1753309 1678130 
2343.254 1542275 1359627 1153402 949001 768859 628510 534018 484690 475070 
2347.594 498655 547785 615237 693950 776261 855302 926089 985762 1035346 
2351.933 1078625 1120380 1162737 1204201 1238924 1260822 1265906 1256236 
2355.791 1239256 1227028 1230417 1255904 1303592 1367837 1439372 1507960 
2359.648 1566982 1611577 1640313 1653417 1653417 1643339 1629204 1618561 
2363.506 1618595 1634459 1667520 1712325 1759298 1795728 1810102 1792002 
2367.363 1736909 1642840 1512482 1351517 1169049 978489 796477 642015 533719 
2371.703 484059 496532 562781 665144 776294 869345 922071 920444 862905 
2376.042 757806 621276 471123 323939 192087 81252 -7090 -74478 -123870 
2380.382 -157722 -177131 -183192 -176336 -158186 -131422 -99490 -65236 
2384.239 -31178 1325 31842 59347 81782 94906 93348 72238 29291 -32933 
2389.061 -106645 -179052 -235651 -265190 -261017 -224888 -165473 -97171 
2392.918 -34789 9178 27734 19847 -10205 -55562 -108566 -162425 -211741 
2397.258 -251745 -278700 -288832 -279528 -250553 -204918 -149011 -92367 
2401.115 -44927 -14976 -7256 -21801 -53839 -95548 -139306 -177495 -205183 
2405.455 -219656 -219523 -203825 -173090 -128938 -75439 -20178 26176 53415 
2409.795 52951 22432 -32768 -99854 -162061 -204355 -216775 -199222 -159742 
2414.134 -112740 -71861 -46550 -38201 -41680 -47279 -46683 -35982 -17461 
2418.474 2021 14314 13518 -1027 -25015 -51056 -71530 -81700 -80077 -68681 
2423.296 -51354 -32304 -14247 563 10735 15473 14380 7654 -2485 -13187 -21238 
2428.600 -24684 -23822 -21801 -23193 -32735 -52911 -83224 -120657 -161200 
2432.939 -201143 -239161 -275587 -311646 -347106 -380344 -407456 -424272 
2436.797 -427483 -416560 -394281 -366043 -338001 -315222 -301514 -297640 
2440.654 -302872 -314096 -327737 -338729 -341543 -332472 -310057 -277673 
2444.511 -243102 -218165 -214059 -238035 -290289 -362136 -438407 -500565 
2448.369 -533395 -527802 -483884 -408549 -314659 -215781 -123969 -48505 4671 
2452.708 32638 35090 14446 -24286 -73418 -125526 -174084 -215417 -250089 
2457.048 -280422 -307838 -331015 -343563 -337008 -303070 -239228 -150667 
2460.906 -51619 38867 103854 131827 121254 79992 21140 -42310 -101510 
2465.245 -153383 -199123 -240784 -278402 -309229 -327969 -330287 -315387 
2469.103 -287508 -253037 -219159 -189551 -163353 -136490 -104359 -65070 
2472.960 -22828 13485 33532 28330 -5433 -63712 -136822 -212304 -279263 
2477.300 -329161 -358892 -367897 -358329 -331942 -291316 -239691 -181735 
2481.157 -123771 -73186 -35816 -14843 -9277 -14545 -24220 -32403 -36512 
2485.497 -37704 -40421 -51520 -76665 -118603 -175674 -242076 -309030 -365612 
2489.836 -402458 -412488 -393089 -346046 -278071 -198692 -118371 -46285 
2493.694 11762 54011 82478 101236 114261 123939 129772 129639 120193 99811 
2498.515 68692 29755 -12623 -53475 -88922 -116119 -133410 -139405 -133277 
2502.855 -114496 -84748 -48240 -12955 11961 17793 331 -38003 -86603 -129601 
2507.677 -151263 -139339 -91208 -14744 72867 151250 201998 214032 186617 
2512.016 128313 54011 -20807 -83191 -125261 -145367 -146229 -132913 -110819 
2516.356 -85411 -61359 -42608 -32735 -34159 -47478 -70702 -99655 -128375 
2520.696 -150534 -161796 -159643 -144572 -119431 -88260 -54767 -21437 11530 
2525.035 45263 82809 126855 179656 240719 306929 372553 429331 468701 484391 
2529.857 473179 436826 382104 319828 260942 216021 191424 188275 201998 
2534.197 223977 243238 249305 235381 199844 148134 91260 43407 18522 25016 
2539.018 63489 125165 194672 253184 285444 284781 254941 208960 164906 
2543.358 140378 145648 182109 242111 313461 382236 438087 475601 493215 
2547.698 491954 473246 437954 387310 323906 253615 183932 123972 80854 58319 
2552.519 55735 69885 97027 134743 181910 238796 303116 369071 427341 466214 
2557.341 477292 457556 412847 355508 302022 266645 256566 270955 302154 
2561.681 339491 373150 398984 417756 434339 453510 478321 508275 541051 
2566.020 573730 605217 636706 670354 707490 746189 780742 803215 806037 
2570.360 785024 741808 683629 621409 566099 526852 508507 510730 530070 
2574.699 561321 598846 637635 674337 706893 734373 757873 779846 803614 
2579.039 832328 867453 906996 946078 977094 992968 989647 968726 936349 
2583.379 904008 883755 883987 907627 950860 1003928 1054278 1091347 1108089 
2587.718 1103903 1083309 1054776 1028571 1013094 1014522 1035778 1075635 
2591.576 1130047 1192406 1254940 1309042 1347562 1365743 1362785 1341413 
2595.433 1308444 1272951 1243277 1226231 1225134 1238658 1262517 1290465 
2599.291 1317085 1338422 1353678 1364513 1374319 1386019 1401243 1418828 
2603.148 1435317 1446320 1447285 1436181 1413975 1384723 1354675 1330645 
2607.005 1317517 1317450 1329182 1348326 1369665 1387747 1398883 1402274 
2610.863 1399315 1392434 1385022 1379437 1376812 1377177 1379903 1383692 
2614.720 1388678 1394894 1403769 1417033 1435981 1461048 1490804 1522623 
2618.578 1552517 1576891 1593519 1602798 1607587 1613307 1625579 1648062 
2622.435 1681789 1723403 1766617 1804312 1830665 1843409 1844407 1838451 
2626.292 1831497 1827936 1829234 1832428 1832561 1824609 1804978 1773969 
2630.150 1735877 1697589 1666755 1649891 1650490 1668850 1701082 1741400 
2634.007 1782753 1818287 1842377 1852460 1848866 1835090 1816523 1799455 
2637.865 1789207 1788542 1797192 1811965 1828236 1841179 1848334 1849565 
2641.722 1847235 1845139 1847368 1856752 1874622 1899780 1930365 1963781 
2645.580 1997533 2028856 2056388 2078860 2096039 2108225 2116915 2123541 
2649.437 2130001 2137326 2145584 2153776 2160668 2165197 2167262 2168161 
2653.294 2170192 2175454 2185411 2199930 2217248 2234999 2251285 2264875 
2657.152 2276599 2288390 2302214 2319669 2340289 2362209 2382598 2398224 
2661.009 2407020 2408319 2403488 2394726 2384597 2375269 2367740 2361876 
2664.867 2357212 2352948 2349250 2347085 2348184 2354647 2367706 2387263 
2668.724 2411252 2436208 2457667 2471695 2475894 2470496 2457733 2441439 
2672.582 2426345 2415783 2411351 2412984 2419181 2427444 2436208 2443938 
2676.439 2450236 2454934 2457833 2458433 2456167 2450936 2443038 2433409 
2680.296 2423480 2414283 2406887 2401089 2396558 2392860 2389628 2387029 
2684.154 2385597 2385630 2386563 2387663 2387629 2385397 2380966 2375402 
2688.011 2370505 2368439 2370505 2376268 2383964 2390828 2393560 2390028 
2691.869 2379567 2363309 2343920 2324099 2306577 2292954 2283261 2276366 
2695.726 2270470 2263842 2255215 2244491 2232734 2222044 2214683 2212619 
2699.583 2216715 2226473 2240228 2255415 2269904 2282095 2291754 2299416 
2703.441 2306178 2313073 2320301 2327497 2333993 2339323 2344153 2349583 
2707.298 2357945 2371138 2390395 2415383 2444371 2474328 2502320 2525682 
2711.156 2543313 2555578 2564577 2573176 2584942 2602308 2626776 2657978 
2715.013 2694218 2732861 2771274 2807623 2841607 2874259 2907381 2942473 
2718.871 2979704 3017505 3053074 3083106 3105631 3120749 3130794 3139571 
2722.728 3150919 3166773 3186298 3206492 3222548 3229892 3226020 3211399 
2726.585 3188701 3162166 3136101 3113340 3094852 3079869 3066521 3052873 
2730.443 3037525 3019807 2999622 2977169 2952782 2926828 2899776 2872425 
2734.300 2845742 2820662 2798152 2778510 2761504 2746532 2732294 2717557 
2738.158 2701153 2682149 2660845 2638210 2616509 2598675 2588075 2586609 
2742.015 2594275 2608308 2623942 2634609 2634243 2619409 2589675 2548545 
2745.873 2501921 2456767 2419514 2393893 2381566 2381832 2392494 2410818 
2749.730 2434175 2459932 2485125 2506853 2522383 2529548 2527615 2517817 
2753.587 2502954 2486891 2473695 2466797 2468330 2478760 2497588 2523116 
2757.445 2553045 2584509 2614175 2638477 2654611 2660845 2657345 2646511 
2761.302 2632643 2620209 2613642 2615209 2624742 2639877 2657012 2672847 
2765.160 2685116 2693851 2700452 2707987 2719157 2736162 2760070 2790982 
2769.017 2828066 2870256 2916354 2964758 3013801 3060715 3102327 3134999 
2772.875 3156092 3164369 3161566 3152020 3143009 3142375 3156993 3191138 
2776.732 3244680 3312986 3388449 3462355 3527522 3580171 3621499 3656248 
2780.589 3691267 3732907 3784878 3846851 3914516 3981657 4042052 4091585 
2784.447 4129584 4158921 4185048 4214356 4251796 4300784 4361827 4433220 
2788.304 4511523 4593122 4674702 4753752 4829231 4900803 4969236 5035434 
2792.162 5100803 5166485 5233082 5301097 5370902 5442563 5516618 5593471 
2796.019 5673897 5757930 5845876 5936996 6030790 6126351 6223682 6322513 
2799.876 6423317 6526667 6632027 6738254 6843463 6945399 7042542 7134891 
2803.734 7224092 7313750 7408347 7511393 7625456 7750410 7883970 8022330 
2807.591 8161917 8300163 8436223 8571381 8708777 8851458 9002406 9163390 
2811.449 9335063 9517066 9708159 9906963 10111860 10321604 10534811 10751009 
2815.306 10970509 11194608 11426306 11668987 11925900 12199529 12490345 
2818.681 12796270 13113371 13437094 13763693 14091394 14421534 14758163 
2822.057 15107541 15475639 15867865 16286898 16733333 17206288 17704676 
2825.432 18228896 18781772 19368232 19994826 20668640 21394774 22176970 
2828.807 23016506 23914208 24870886 25889284 26974450 28133812 29375148 
2832.182 30706310 32133530 33661120 35292564 37031248 38882544 40853356 
2835.558 42952348 45187224 47563212 50080656 52735092 55516048 58411004 
2838.933 61405636 64485604 67639088 70853912 74119040 77423704 80756944 
2842.308 84109056 87472520 90840512 94207576 97566520 100906832 104214488 
2845.683 107470672 110652344 113736280 116695520 119500600 122119144 
2848.576 124511080 126631824 128435032 129873696 130909264 131514608 
2851.469 131676568 131396400 130688728 129579768 128102960 126301096 
2854.363 124224336 121924880 119461552 116892144 114269656 111643880 
2857.256 109054624 106532680 104102464 101779832 99576944 97502936 95564992 
2860.631 93769560 92121312 90623248 89275832 88076424 87020720 86101664 
2864.006 85311440 84641216 84080584 83618432 83240848 82931032 82670072 
2867.381 82435128 82202168 81947200 81645752 81276384 80820360 80261920 
2870.757 79590688 78801248 77894616 76879424 75771560 74594320 73374744 
2874.132 72144072 70932712 69768224 68675880 67675448 66782140 66007404 
2877.507 65358252 64838836 64450584 64193188 64065216 64064720 64189456 
2880.882 64436480 64801984 65280952 65867020 66553056 67332592 68199400 
2884.258 69149856 70180888 71290256 72474656 73728064 75041408 76403496 
2887.633 77801304 79223024 80659912 82106520 83560664 85022400 86491616 
2891.008 87966784 89444304 90918360 92382400 93830256 95257248 96661248 
2894.383 98042432 99403912 100749824 102084984 103413600 104738144 106058752 
2897.759 107374432 108682872 109983784 111279024 112573920 113876656 
2900.652 115194976 116535504 117900752 119288960 120696496 122119496 
2903.545 123557128 125012176 126490680 127999632 129544320 131126584 
2906.438 132745456 134398416 136084304 137804432 139563344 141365968 
2909.331 143215632 145111840 147049008 149017216 151006304 153006240 
2912.224 155009280 157010144 159002944 160980288 162931264 164840000 
2915.117 166686864 168448304 170094832 171594816 172911440 174004368 
2918.010 174836208 175372448 175586544 175462256 174991600 174173136 
2920.903 173008848 171504320 169668080 167515152 165070432 162365744 
2923.796 159441920 156344272 153116160 149799776 146432896 143047088 
2926.689 139671040 136328416 133037344 129810960 126656752 123577560 
2929.582 120572528 117640144 114778096 111985720 109262616 106609920 
2932.475 104029664 101525000 99100968 96763256 94517256 92367608 90316040 
2935.851 88361992 86503544 84739472 83070464 81500824 80036808 78686096 
2939.226 77454320 76343840 75354504 74483032 73726648 73083776 72554528 
2942.601 72140904 71843480 71660832 71587248 71613624 71728480 71919760 
2945.976 72176192 72487688 72844288 73235176 73648008 74067872 74479408 
2949.352 74866936 75215440 75511664 75741704 75890720 75943360 75882944 
2952.727 75694600 75368016 74898984 74290536 73552464 72699056 71745912 
2956.102 70708640 69601960 68437264 67224856 65972148 64683908 63362436 
2959.477 62008016 60619092 59194160 57733504 56239004 54714756 53165952 
2962.853 51598660 50018528 48431448 46843176 45259772 43687980 42134344 
2966.228 40605312 39106404 37642348 36216924 34833324 33494484 32202042 
2969.603 30956948 29758242 28603888 27490784 26415630 25375730 24368942 
2972.978 23394590 22452146 21541476 20663116 19817222 19005266 18229102 
2976.354 17491062 16793392 16136939 15520588 14941460 14395365 13877324 
2979.729 13383887 12912753 12463202 12035202 11628961 11244148 10879142 
2983.104 10532129 10201200 9885064 9583487 9296742 9025714 8770848 8531877 
2986.961 8307729 8096152 7894902 7700694 7510449 7322040 7134554 6948732 
2990.819 6767129 6594146 6434011 6290037 6162848 6050781 5949257 5853230 
2994.676 5758468 5662920 5567595 5475042 5388581 5310523 5241030 5178523 
2998.534 5120349 5063826 5007110 4949764 4891353 4831275 4768559 4701095 
3002.391 4627313 4546813 4461206 4373909 4289574 4212649 4146041 4091084 
3006.249 4047336 4013325 3987643 3968783 3955508 3945978 3938522 3930063 
3010.106 3918194 3901444 3879211 3852133 3821345 3787652 3751489 3712287 
3013.963 3669480 3622835 3572854 3520374 3465796 3409054 3349147 3285175 
3017.821 3217741 3149751 3086443 3034254 2998354 2979837 2974666 2974166 
3021.678 2968094 2947677 2909582 2857382 2800753 2751667 2719991 2709855 
3025.536 2718190 2735128 2747732 2744798 2719724 2672214 2607842 2536581 
3029.393 2468696 2412751 2374469 2354713 2350882 2357512 2367606 2373870 
3033.250 2370305 2353381 2322300 2279330 2228871 2176653 2127803 2085185 
3037.108 2049496 2019403 1992639 1967575 1944410 1925073 1912327 1908500 
3040.965 1914091 1926970 1942979 1956958 1964946 1965112 1958422 1947638 
3044.823 1936322 1927004 1919682 1912127 1900313 1880845 1851328 1812497 
3048.680 1766883 1719710 1674904 1635822 1603629 1577690 1556274 1538118 
3052.538 1522823 1510753 1502973 1499748 1500047 1501709 1501310 1496124 
3056.395 1484819 1467897 1448049 1428402 1412379 1401642 1396390 1395359 
3060.252 1396855 1399315 1401808 1404168 1406628 1409088 1411016 1411249 
3064.110 1408556 1402074 1391038 1375183 1354642 1328950 1298008 1262184 
3067.967 1222576 1180877 1140777 1105564 1078525 1061984 1055939 1058928 
3071.825 1067697 1078924 1089188 1096263 1098954 1096928 1091048 1082412 
3075.682 1072115 1061519 1052152 1044679 1040062 1038701 1040660 1045377 
3079.540 1051521 1057301 1059991 1056437 1043184 1017976 979386 928977 
3083.397 870574 809921 754387 709415 678916 663186 659337 662290 665775 
3087.737 665211 657678 642944 623035 601301 581593 567194 560028 561089 
3092.076 569815 584081 601633 618821 631928 637867 634317 620015 596125 
3096.416 565070 530435 496897 468701 449530 441238 443891 455069 471023 
3100.755 486779 498787 504559 504460 501275 498622 500015 507545 521179 
3105.095 539259 559165 578939 597718 615768 633719 651472 667135 677622 
3109.435 679182 668894 646827 615469 580598 547951 523170 509933 509038 
3113.774 519321 538264 563246 591082 619518 645831 666970 680874 685520 
3118.114 680675 667500 648519 626021 602098 577180 550639 521876 490893 
3122.453 458585 427573 400874 380976 369336 365423 367844 373912 381540 
3126.793 389201 396663 404357 413577 425649 441569 461802 485386 510663 
3131.133 533686 550307 556610 550705 533089 507777 480742 457955 443692 
3135.472 439115 441868 447108 449397 444986 432913 414936 395004 377958 
3139.812 367777 367180 376731 396298 423924 456561 490826 522108 546458 
3144.151 560791 564639 559331 548482 535610 522937 509569 491987 465252 
3148.491 425583 371657 307062 238531 174883 123441 89404 73630 74193 87151 
3153.313 108892 136367 168386 203921 242211 282161 322381 361311 397226 
3157.652 428767 454339 472118 480245 477757 465119 445251 423361 404954 
3161.992 395170 396397 407839 425682 445284 463228 477525 489002 499351 
3166.332 510132 521046 530136 533918 530335 518592 500413 479250 458883 
3170.671 441835 428700 418618 409464 399979 389433 377295 364229 350368 
3175.011 335678 320955 308189 300364 302022 316081 343238 380445 421238 
3179.350 457192 480809 487509 477160 453742 423593 393910 370696 357564 
3183.690 356171 366219 385519 410326 435267 453643 457822 442299 404688 
3188.030 348710 282327 219137 172728 153338 165635 206441 265816 329543 
3192.369 384491 420475 432747 422764 396563 362737 329311 303448 288229 
3196.709 284117 288759 298010 307858 314655 316578 313892 307625 299800 
3201.048 291743 283786 275829 266877 256997 246852 238630 234851 237503 
3205.388 246520 260180 274403 284283 286306 278183 260080 233889 203225 
3209.728 170839 138522 106903 75287 43142 10106 -23292 -55396 -83589 -105717 
3214.549 -118802 -120756 -110057 -85411 -47511 2054 59413 119365 175579 
3218.889 221623 253284 268070 266479 251891 228618 200772 172264 145416 
3223.229 121188 100275 82909 70117 62959 62760 69653 83207 101269 120624 
3228.050 137296 147637 149062 140511 122679 97690 68824 39696 13452 -7190 
3232.872 -20907 -27699 -28560 -25114 -19151 -11663 -3379 6129 16964 29092 
3237.694 41386 51758 57623 56563 47649 31942 11762 -8912 -26904 -40024 
3242.516 -47975 -52017 -53408 -53408 -51520 -46550 -37572 -24651 -9310 4638 
3247.337 13717 15440 10006 762 -7156 -8217 298 17793 39563 59247 70249 68824 
3253.124 54807 32505 9078 -8382 -14379 -6162 14479 43672 75618 104384 125032 
3258.427 134611 132092 118470 96033 68327 38636 9807 -16036 -38400 -56887 
3263.249 -71861 -83224 -91109 -94819 -94819 -91109 -83920 -72955 -57218 
3267.589 -35087 -5235 32737 76546 121055 158774 182441 186717 170972 139947 
3272.411 102727 69819 50035 47317 59711 80622 100341 110516 106307 86455 
3277.232 54011 14049 -27798 -67190 -100583 -125824 -140796 -144009 -134370 
3281.572 -112806 -82065 -47478 -15108 8482 19814 18190 7123 -7388 -17958 
3286.394 -18422 -6229 17196 46025 72006 86322 82445 58883 19317 -27997 
3291.216 -72424 -103597 -115655 -107374 -83721 -52017 -21172 3147 18853 
3295.555 27932 34858 43937 57889 75585 93812 107831 114161 111311 101236 
3300.377 87979 76612 71210 73895 83605 97656 111311 120425 121718 114857 
3305.199 101335 85162 71906 66306 71542 87416 110748 135439 154465 162784 
3310.021 157680 140776 116945 92718 74491 66107 68626 80291 97060 114725 
3314.842 129705 139715 144521 144720 142035 138522 136036 136069 138787 
3319.182 143991 149625 154067 155691 153537 148731 142433 136401 132026 
3323.521 129308 126822 124104 121055 119265 121917 132688 153470 183468 
3327.861 217944 249703 270789 274900 259251 225668 179723 128678 80456 41452 
3332.683 15076 2683 3545 14910 32803 52818 69885 79827 80390 71906 57060 
3337.987 40624 27634 21603 23426 31544 42214 51526 56497 56165 51625 45263 
3343.291 39795 37608 40326 48113 60540 76347 94110 111311 125861 135903 
3348.113 140875 141207 138754 135108 131230 125993 116415 99214 72006 35951 
3352.934 -4307 -40421 -64341 -69112 -52845 -18885 24553 67167 100474 118768 
3357.756 120922 109190 87946 61236 32373 3479 -23557 -47312 -65898 -78255 
3362.578 -83589 -82893 -77460 -68813 -57881 -43701 -24485 1557 34261 71442 
3367.400 108229 138522 157348 162387 154630 138621 119696 103092 92221 87880 
3372.221 88974 94375 102462 112736 125264 139350 153338 164641 169911 166696 
3377.043 154266 134511 110383 86389 65676 49869 38404 29125 19483 7521 -7156 
3382.347 -23458 -38731 -49499 -53011 -46915 -30349 -3578 31412 71906 114095 
3387.169 153769 186485 208363 216783 210054 189137 156023 114857 71310 30882 
3391.991 -165 -17925 -20708 -10238 8780 29954 46423 52818 46953 29755 5765 
3397.295 -19316 -39394 -50625 -52646 -47577 -39394 -32138 -28891 -30217 
3401.634 -34524 -39692 -42674 -41415 -35253 -24385 -9840 6328 22366 35786 
3406.456 43805 43606 33433 12690 -15904 -47147 -74346 -90280 -90082 -71994 
3411.278 -38500 4605 49637 89537 119464 138489 148134 151349 151415 149824 
3416.100 145317 135207 116150 85262 42181 -10834 -68913 -124798 -171004 
3420.439 -200778 -209952 -197665 -166400 -120922 -67521 -13319 36283 76513 
3424.779 103887 117177 116117 101865 76281 42612 4804 -32768 -65269 -88823 
3429.601 -100649 -99688 -87034 -64705 -36445 -5433 25414 54276 79760 100871 
3434.422 116514 124701 123276 110118 84433 47748 3611 -42045 -82065 -110090 
3439.244 -121916 -116516 -96177 -66196 -33199 -3412 18555 31246 35355 33864 
3444.066 29490 24685 21239 20179 22100 27999 38072 52255 68924 85096 97458 
3449.370 103821 104053 101401 101037 108825 128479 159271 194639 223380 
3453.709 234155 217977 172463 103821 25944 -45258 -93593 -109129 -89982 
3458.049 -42442 21272 87515 142731 177734 188275 175546 144687 104053 63323 
3462.871 31445 14744 16401 35719 68493 108925 151117 189899 222121 247581 
3467.693 266147 278713 285676 287035 282824 274370 264191 255140 249604 
3472.032 248377 249338 248410 241382 225303 200606 170905 142201 120558 
3476.372 110250 112206 124767 144753 168950 194772 221491 247979 273143 
3480.711 294993 310411 316479 312500 300032 281697 261141 241249 223049 
3485.051 206341 190098 174054 159304 148068 142665 144853 154166 168220 
3489.391 182706 193744 197855 193479 180319 159437 132357 101700 70846 43440 
3494.212 23989 16766 23558 43705 73166 105809 134644 154365 162320 159569 
3499.034 149526 136036 123110 112372 103854 95933 86687 75287 61799 48378 
3503.856 38205 34527 39994 55735 81451 115255 153901 192717 227093 252090 
3508.678 265053 265086 254311 236906 217181 199247 185391 176673 173060 
3513.017 173922 177966 183137 186617 184827 174518 154630 126822 95635 68460 
3517.839 52620 52354 67267 91293 114658 126424 118834 89239 42347 -11762 
3522.661 -59637 -89452 -95680 -80044 -51089 -20608 0 3214 -13054 -45656 
3527.483 -86703 -127348 -158384 -174283 -172527 -154443 -123042 -82529 
3531.340 -36611 11597 59280 104252 144223 176375 198319 207833 204551 190562 
3536.162 170541 150951 137561 134047 140444 153238 166298 173458 169281 
3540.501 150587 117111 70912 15175 -47014 -112475 -178158 -240089 -291779 
3544.841 -324658 -329293 -297938 -228862 -127746 -8581 111112 212573 281564 
3549.181 310245 297844 250631 179292 99214 25414 -30382 -62651 -73286 -69211 
3554.002 -58742 -47942 -39096 -31575 -23193 -11132 5964 28032 53481 80490 
3558.824 107466 133484 157382 178662 195932 207302 211115 205512 188905 
3563.164 160199 118205 61666 -8747 -89750 -172428 -240718 -275918 -263534 
3567.503 -202964 -109262 -6626 81948 142102 168121 162950 134876 96265 58982 
3572.325 32969 24486 33897 57325 87979 118602 143096 158177 162950 159304 
3577.147 150620 140975 134313 133948 141372 156420 177469 201634 226099 
3581.487 248808 267805 280901 285742 278382 254544 210750 146013 64085 
3585.826 -24319 -101312 -148050 -151098 -112343 -47942 19350 72536 104484 
3590.166 116581 114360 104417 91161 76148 59015 39099 17793 66 -6891 3048 
3595.470 31942 75320 124071 167093 196065 207800 205181 195601 188739 192518 
3600.292 210120 239061 272546 302785 323077 330140 323707 305238 276923 
3604.631 240851 199247 154763 110847 71674 41320 21073 9078 -265 -14379 
3609.453 -39129 -75638 -120723 -167592 -206376 -225981 -217238 -175409 
3613.310 -103730 -13154 81252 165436 230408 271717 289356 285245 264026 
3617.650 231635 195103 161724 136633 121817 116647 119398 129109 146079 
3621.990 172397 209590 258489 317142 380280 440276 487078 510630 502801 
3626.329 458850 379384 272447 158376 69255 34924 64450 137925 221723 289853 
3631.151 331533 345659 337269 314158 285908 260909 245327 241481 248012 
3635.490 261473 278282 295357 310643 321850 326260 320789 302387 269629 
3639.830 223447 168220 111046 61567 28363 17230 28231 56066 90531 119066 
3644.652 129175 108461 46191 -65269 -226643 -428410 -648015 -849057 -990703 
3648.991 -1037346 -971297 -802228 -565130 -306779 -67654 126822 267507 
3652.849 356071 398520 403528 380976 343072 303149 273740 262202 267407 
3657.188 281664 296717 308388 317208 327753 345161 373216 411620 456031 
3661.528 498058 529207 542842 536240 511393 474473 433410 394441 361477 
3665.868 334583 309847 279840 235713 168353 72602 -48803 -179416 -290223 
3670.207 -354224 -360448 -319162 -251679 -179979 -119895 -80707 -67256 
3674.065 -78222 -103995 -124234 -117709 -75472 -5533 77540 163016 246454 
3678.404 326990 404125 476397 540819 594533 636274 666074 685852 697733 
3682.744 703176 702114 693751 676527 649116 611687 565502 513516 459679 
3687.083 409331 368242 341945 334716 347648 379119 425649 481571 540586 
3691.423 595827 641252 672943 690133 694779 691228 684126 677456 672876 
3695.763 669425 663751 651074 628244 593803 549245 498024 445782 397724 
3700.102 360382 339093 337468 355905 390395 434272 479614 519720 550539 
3704.442 569881 578076 576616 568853 558203 548482 542610 542477 548515 
3708.781 560061 576218 594964 614540 632359 645068 649017 641219 619982 
3713.121 586006 541781 491158 437457 384790 336573 295921 265882 248410 
3717.461 244366 252886 271286 295755 322016 346355 365522 377262 379716 
3721.800 371724 353120 325332 291511 256897 228088 213037 218772 249703 
3726.140 304243 375139 449264 513450 558004 578507 575090 551136 512289 
3730.479 465252 415931 369203 327089 287731 248045 208131 172231 152377 
3734.819 163016 213999 299668 400012 487940 543572 560227 539890 490959 
3739.159 424621 352888 284747 226530 180584 145814 120260 102760 93912 96795 
3743.980 113200 139583 166961 186253 193181 189004 177270 161691 145515 
3748.320 130965 119232 111874 110217 118039 139185 175977 225966 281531 
3752.660 332760 371160 392650 396895 387144 367645 343503 319993 301392 
3756.999 291975 294661 310908 339823 378157 419248 454273 475999 479946 
3761.339 466943 442531 414273 390759 378754 382369 401040 428336 452880 
3765.678 463825 454969 426843 385155 338994 297612 268899 258621 269529 
3770.018 300099 346024 402367 464323 529174 594301 656915 714095 762354 
3774.358 798601 820643 827116 818120 794053 756279 707324 651406 595661 
3778.697 550307 523966 521046 538596 567492 595860 614441 618290 606942 
3783.037 584944 560028 541316 535511 544402 564606 589490 612151 628808 
3787.376 639493 647457 657114 672445 695211 723653 754288 781307 799199 
3791.716 804410 795116 771183 734938 689237 637204 583252 532193 488504 
3796.056 455500 432448 414903 395469 367147 325133 268369 199943 128811 
3800.395 69719 39431 49173 94740 158774 221756 273044 311206 341315 371060 
3805.217 408900 461636 531165 611919 691793 757640 801921 824428 829839 
3809.557 824129 813174 800958 789804 780112 770154 756744 736498 706428 
3813.896 664978 614076 559397 510166 474904 456097 448203 441304 426578 
3818.236 399747 362074 320856 288461 282493 316014 387940 479449 566066 
3822.575 631463 671350 690133 695277 694547 694315 699392 712402 732813 
3826.915 757142 780211 796875 803580 798070 780510 752927 719073 684292 
3831.255 654492 633023 620347 613379 606511 594632 574360 544800 506948 
3835.594 463660 417324 370198 323707 279343 239558 207932 188275 182606 
3839.934 190894 211181 241050 279409 326426 383032 450094 525691 605217 
3844.273 681438 746787 796543 828743 845143 848961 843682 831133 811083 
3848.613 781274 737526 675930 594068 492087 374874 253847 149095 89868 
3852.953 101832 186750 314555 446545 559364 647590 715887 769556 811813 
3857.292 843051 861444 865063 852380 823564 780444 726109 665144 602363 
3861.632 542378 489101 444521 409564 384226 368971 363367 366351 375604 
3865.971 387775 399349 408602 414538 418353 422730 431619 447938 471720 
3870.311 498024 520250 533155 535676 529440 519421 512056 514180 530335 
3874.651 560426 598481 636175 666206 683131 684923 672047 647988 618522 
3878.990 591148 574194 572237 583849 601235 615005 618091 609032 591082 
3883.330 571573 559961 565502 594632 645931 708519 765606 804178 818319 
3887.669 809522 782734 743833 699226 655388 618987 596955 593770 609829 
3892.009 641219 680941 721297 756213 781639 794916 795049 782137 757010 
3896.349 721363 677589 629273 580996 537501 503631 482766 475733 481306 
3900.688 496134 516303 538994 562118 584446 605349 624296 640621 654758 
3905.028 667932 682401 700355 723653 752529 785190 818917 849857 874126 
3909.367 888602 892586 886477 872234 852314 828677 803514 777622 752761 
3913.707 730656 713431 703441 702047 708453 719670 731917 741045 745791 
3918.047 747650 749873 755350 764046 773573 778585 774037 757109 728432 
3922.386 692954 658640 633753 625358 635644 661394 695310 729494 758835 
3926.726 781074 797439 810053 820676 829540 835250 835748 829075 814502 
3931.065 793622 769224 745592 726541 714526 711008 715887 728001 746521 
3935.405 769590 795281 821141 843915 860282 867353 863270 848264 824361 
3939.745 795647 767664 745957 736365 741576 761457 791033 822502 847898 
3944.084 861411 860979 847932 825423 796277 762586 725080 683728 639493 
3948.424 596059 559563 537899 538330 564340 614308 681803 756943 828743 
3952.763 889133 933693 962317 978422 987455 994595 1002533 1012363 1023024 
3957.103 1032357 1037870 1037804 1031128 1017976 999179 976829 954048 934390 
3961.443 921573 917721 923299 935286 949532 960723 964176 957535 940666 
3965.782 915795 886610 857891 833955 818087 812543 817357 831432 851550 
3970.122 872997 890893 900223 897600 881729 854737 820643 785456 755715 
3974.461 736199 730092 738157 758769 789373 827017 868217 910051 949665 
3978.801 984765 1013526 1035246 1050027 1058729 1062748 1063512 1061585 
3982.658 1057467 1050491 1039797 1025117 1006717 985330 962283 939371 918020 
3986.998 899559 885514 877314 876749 885381 904041 932962 970419 1013658 
3991.338 1058563 1100681 1135661 1159847 1171010 1168418 1153136 1128021 
3995.195 1097592 1066734 1039830 1020234 1008610 1003828 1002898 1002333 
3999.052 1000075 995691 991075 989680 
##END=
