##TITLE=ma_2 Sep 02 11:54:18 2026 (GMT+02:00)
##JCAMP-DX=5.01  $$ Nicolet v. 970
##DATATYPE=INFRARED SPECTRUM
##ORIGIN=Vojna akademija
##OWNER=Nicolet
##LONGDATE=2026/09/02
##TIME=11:54:46
##SPECTROMETER/DATA SYSTEM=Nicolet iS20
##DATA PROCESSING=
Ratio against background
%Transmittance->Absorbance
Truncated
ElementMultiply or ElementDivide
##COMMENTS=
Number of sample scans: 8
Collection length: 11,90 sec
Sample gain: 8,0
Background collected on: Wed Sep 02 11:53:24 2026 (GMT+02:00);
Number of background scans: 8
Background gain: 8,0
Sample spacing:  1,000
Number of scan points: 12415
Resolution points: 8286
Number of FFT points: 65536
Apodization: N-B strong;
Phase correction: Mertz;
Laser frequency: 15798,00 cm-1
Number of rejected sample scans: 0
Number of rejected background scans: 0
Bench serial number: BER2010005;
##RESOLUTION= 4,000
##XUNITS=1/CM
##YUNITS=ABSORBANCE
##FIRSTX=400.156891
##LASTX=4000.123047
##FIRSTY=0.009028
##MAXX=4000.123047
##MINX=400.156891
##MAXY=0.151713
##MINY=-0.003947
##XFACTOR=1.000000
##YFACTOR=1.000000E-009
##NPOINTS=7468
##DELTAX=0.482117
##ZPD=6100
##XYDATA=(X++(Y..Y))
400.157 9027575 6391674 4194684 2550145 1496689 1001005 972179 1277737 
404.014 1760595 2275533 2705354 3007762 3217007 3416167 3670783 3980520 
407.871 4244736 4302792 3978212 3178822 1960319 542477 -760422 -1642459 
411.728 -1866697 -1346664 -148812 1515973 3378765 5168765 6684044 7824388 
415.585 8545698 8829343 8645025 7953719 6741417 5095272 3299732 1762092 
419.442 806701 479482 582887 836080 996721 916825 509701 -231942 -1235961 
423.781 -2334337 -3297737 -3894128 -3947323 -3407225 -2344783 -932979 613711 
427.638 2066608 3238538 4030848 4429037 4497663 4339102 4069009 3782873 
431.494 3548267 3413027 3404311 3532399 3788722 4143901 4547951 4943363 
435.351 5293048 5598070 5905423 6278910 6754374 7295824 7783535 8032017 
439.208 7858632 7138023 5868041 4187624 2377001 781274 -308302 -717686 
443.065 -465085 277818 1253977 2240761 3093918 3750052 4201408 4456385 
446.922 4521701 4407681 4143600 3787318 3412259 3089679 2858650 2713522 
450.779 2605075 2465831 2242359 1927636 1571371 1261786 1081714 1069358 
454.636 1210514 1449977 1723536 1976163 2186709 2364675 2534647 2709021 
458.493 2874826 3006361 3093350 3157728 3254461 3443953 3770573 4226032 
462.350 4741894 5196261 5466788 5476888 5223222 4772076 4235903 3735012 
466.207 3353621 3123318 3014068 2956751 2872358 2707254 2449003 2123308 
470.064 1780989 1484985 1303957 1293622 1488410 1879314 2407953 2965892 
473.921 3429291 3698953 3717968 3489510 3070926 2565743 2093043 1761859 
477.778 1638849 1727062 1973766 2294252 2612142 2872191 3053174 3161265 
481.635 3217474 3245682 3264243 3289215 3334622 3415532 3543356 3717233 
485.492 3918495 4109246 4248216 4301554 4257417 4132527 3965205 3802727 
489.348 3681276 3616053 3592398 3575326 3523213 3408219 3224651 2990146 
493.205 2732961 2478260 2236398 2002426 1765818 1522091 1280694 1067464 
497.062 913670 846272 877446 1002998 1206726 1474114 1797758 2182547 2641643 
501.401 3188101 3823585 4530875 5273863 6001796 6662342 7202094 7571877 
505.258 7731319 7647173 7304012 6713150 5922150 5011366 4078942 3227622 
509.115 2534181 2045435 1773969 1701980 1785148 1960785 2162600 2327297 
512.972 2410019 2393160 2285492 2119513 1942846 1813662 1781488 1880578 
516.829 2118580 2475228 2905113 3346175 3732573 3997407 4085397 3964402 
520.686 3628549 3106932 2460332 1778960 1158086 687910 428634 393512 543274 
525.025 796410 1061984 1263946 1376379 1425643 1473382 1578687 1772206 
528.882 2042938 2346718 2621242 2810057 2887667 2864820 2785113 2702686 
532.739 2666613 2701786 2807189 2961922 3136835 3305207 3446491 3549469 
536.596 3606764 3612812 3565271 3469202 3341868 3211900 3118012 3095987 
540.453 3168408 3338929 3588556 3880615 4166247 4400250 4543900 4574203 
544.310 4485510 4293021 4030782 3748013 3504607 3352419 3321267 3409822 
548.167 3584447 3787819 3954037 4032353 3999012 3867042 3678670 3494887 
552.024 3372621 3349380 3437607 3622367 3866440 4115969 4317483 4422710 
555.881 4398543 4234933 3945745 3569881 3162133 2788714 2509152 2365308 
559.738 2378034 2545079 2846142 3246883 3707208 4179562 4611205 4951707 
563.594 5152670 5181406 5030104 4725748 4327589 3914015 3568645 3350416 
567.451 3282504 3347110 3499363 3682345 3849692 3980118 4076267 4156278 
571.308 4238178 4331505 4431982 4526355 4598781 4638565 4641110 4606349 
575.165 4534659 4425455 4280238 4107172 3926987 3771943 3676664 3670449 
579.022 3762953 3937252 4146878 4329531 4421204 4377524 4191070 3889809 
582.879 3530261 3175684 2887601 2706721 2645710 2690050 2805822 2952114 
586.736 3091548 3201285 3272990 3309948 3321500 3318195 3307210 3292387 
590.593 3276261 3263008 3258167 3268449 3296293 3336893 3376962 3400638 
594.450 3394961 3357828 3301167 3250255 3234666 3275894 3380134 3534170 
598.307 3710416 3875768 4005198 4086936 4124064 4127142 4104229 4053925 
602.164 3965539 3824989 3626343 3379633 3112606 2863019 2664946 2539980 
606.021 2489024 2496322 2537114 2590109 2641410 2686883 2728226 2767839 
609.878 2805822 2842307 2880796 2932065 3012867 3140139 3321133 3545527 
613.735 3783608 3994899 4135638 4175681 4108778 3955240 3755433 3555516 
617.592 3399169 3312719 3304973 3367545 3480525 3615451 3741095 3829502 
621.448 3859888 3827529 3745573 3646992 3574859 3567309 3645255 3798716 
625.305 3987709 4150156 4228174 4182773 4010850 3742398 3432965 3143076 
629.162 2919089 2787847 2750466 2789148 2875160 2981839 3089513 3188234 
633.019 3278164 3365876 3461420 3573422 3705771 3853871 4003159 4129550 
636.876 4206694 4214724 4147547 4017973 3856478 3702830 3590895 3539515 
640.733 3544158 3579202 3604693 3580471 3479924 3294523 3037925 2742130 
644.590 2454401 2223709 2097538 2111921 2281429 2594375 3008864 3460084 
648.447 3863833 4142429 4244067 4156579 3911607 3575761 3233898 2959220 
652.304 2801553 2773541 2853947 2996118 3147448 3266179 3326976 3327377 
656.161 3281336 3212935 3145078 3092950 3061415 3044732 3031018 3008296 
660.018 2971997 2925794 2882931 2859083 2867822 2912384 2984141 3064085 
663.875 3131528 3170544 3174449 3146747 3097522 3038025 2976468 2915220 
667.732 2850712 2781078 2713455 2663546 2644710 2660112 2704053 2762937 
671.589 2820662 2864620 2889735 2904345 2926962 2981806 3084140 3230760 
675.446 3396530 3540750 3619060 3599080 3475648 3271521 3032953 2810557 
679.302 2651278 2582542 2606775 2703253 2836937 2969595 3067288 3110403 
683.159 3093350 3024478 2921824 2808990 2709654 2642843 2622009 2654845 
687.016 2743464 2882898 3061349 3259936 3451735 3609237 3707642 3731704 
690.873 3681777 3575393 3444721 3326175 3253226 3246650 3310182 3436605 
694.730 3612879 3829736 4085097 4382845 4726988 5112202 5520678 5920638 
698.587 6274338 6552635 6741855 6850431 6902070 6928330 6953883 6991594 
702.444 7042509 7102085 7168744 7250472 7362984 7526463 7755133 8051189 
706.301 8402340 8787212 9183120 9571563 9945134 10303655 10651674 10994195 
710.158 11334503 11676610 12027946 12401113 12812308 13275612 13799571 
713.533 14383412 15019210 15697163 16412891 17172470 17991400 18886550 
716.908 19869488 20935318 22062088 23208706 24323280 25354126 26251434 
720.282 26976566 27503456 27819402 27927760 27847630 27612194 27257342 
723.657 26817584 26316556 25764170 25162872 24515530 23832432 23138280 
727.032 22464498 21843496 21298508 20835436 20444396 20104890 19795788 
730.407 19501392 19215714 18938116 18667750 18397520 18114052 17801564 
733.782 17451704 17070278 16680650 16317172 16016632 15807590 15699636 
737.156 15682872 15730385 15809789 15887318 15938632 15948361 15908042 
740.531 15814703 15668685 15474644 15242011 14987450 14732284 14498609 
743.906 14305637 14165227 14079106 14039680 14033930 14048339 14071029 
747.281 14094680 14113915 14121788 14108028 14057271 13950505 13771696 
750.656 13511637 13173991 12777365 12355907 11949400 11594827 11318144 
754.031 11125459 11004254 10927830 10866878 10795742 10701186 10582883 
757.405 10450052 10315903 10189870 10077234 9978392 9893301 9825816 9783216 
761.262 9776676 9814836 9900318 10025861 10176031 10331579 10473947 10591133 
765.119 10680232 10744963 10791904 10826552 10850469 10861747 10856448 
768.494 10830595 10782326 10711103 10617651 10503613 10373047 10233868 
771.869 10098972 9985444 9909268 9880793 9898996 9950626 10010467 10047664 
775.726 10036745 9962119 9823207 9633216 9414458 9189956 8978356 8790864 
779.583 8630153 8492815 8373120 8265446 8166677 8077046 7999448 7938904 
783.440 7900943 7889031 7902157 7933674 7969782 7990740 7976161 7907995 
787.297 7777530 7588567 7357862 7113200 6884396 6701474 6586476 6549742 
791.154 6589537 6692725 6837472 6995567 7139202 7242926 7287906 7267723 
795.010 7188652 7070528 6939877 6826835 6755316 6738120 6775812 6859452 
798.867 6974153 7106565 7249260 7401034 7564763 7742483 7931784 8125488 
802.724 8312794 8484166 8633634 8761347 8870328 8963844 9042089 9102042 
806.581 9138721 9151207 9145387 9134424 9137536 9172629 9249049 9364213 
810.438 9502978 9642702 9761088 9845305 9893267 9914014 9920048 9920827 
814.295 9916319 9897030 9846728 9750684 9603405 9410497 9187485 8954204 
818.152 8728114 8518597 8329108 8159959 8013994 7898682 7823139 7790383 
822.009 7790214 7796522 7773044 7681807 7501650 7236996 6922000 6607064 
825.866 6346451 6177131 6105416 6108407 6143255 6168729 6157571 6109012 
829.723 6045607 6004316 6017754 6103602 6258169 6459200 6673916 6868811 
833.580 7020351 7115524 7152373 7135969 7078072 6994120 6903820 6831110 
837.437 6797755 6817613 6891432 7003851 7125393 7221061 7263612 7241106 
841.294 7162512 7053285 6947251 6872177 6841478 6850869 6882612 6915536 
845.151 6933312 6934692 6931427 6944827 6994052 7089826 7227495 7389777 
849.008 7549928 7683392 7773482 7814807 7812344 7777126 7718907 7641643 
852.865 7541667 7411583 7245385 7046079 6828317 6617022 6443662 6333003 
856.721 6297332 6330279 6410808 6509749 6599697 6667052 6713487 6754610 
860.578 6809569 6892543 7002167 7121014 7218837 7265769 7242757 7150183 
864.435 7008464 6852687 6721765 6643702 6631825 6680343 6771437 6880895 
868.292 6991628 7096831 7201690 7317187 7454120 7614733 7789843 7959084 
872.149 8096321 8179440 8194701 8141930 8034279 7894667 7748353 7615306 
876.006 7508393 7429110 7372488 7329150 7291882 7257447 7228034 7209775 
879.863 7210752 7237703 7293600 7376801 7480851 7594737 7705011 7798580 
883.720 7865481 7901010 7906004 7887547 7855123 7817573 7781174 7748083 
887.577 7718266 7691925 7673376 7670813 7694354 7750478 7836533 7937183 
891.434 8028710 8082244 8074750 7996950 7855696 7671521 7470603 7277090 
895.291 7104342 6955634 6827139 6714732 6617998 6540963 6487955 6459468 
899.148 6448203 6442754 6431657 6411379 6389355 6382495 6407479 6471744 
903.005 6564509 6660155 6723683 6726644 6660861 6544259 6415953 6321202 
906.862 6298072 6360034 6494008 6664865 6831649 6960280 7034460 7057966 
910.719 7048907 7029948 7017185 7018499 7032709 7053588 7074738 7092453 
914.575 7105756 7114176 7116669 7110000 7090365 7055205 7003278 6935198 
918.432 6852619 6757268 6652652 6544696 6445680 6372307 6344602 6380578 
922.289 6489098 6666177 6893115 7142301 7381284 7582464 7731420 7826041 
926.146 7876379 7898648 7910593 7925474 7951121 7990031 8040523 8098616 
930.003 8159317 8218067 8270477 8313031 8344915 8366634 8380416 8389638 
933.860 8397205 8404434 8411292 8416224 8417339 8412575 8399907 8377679 
937.717 8343159 8294523 8229987 8149492 8055713 7953246 7848881 7749769 
941.574 7662888 7594400 7548478 7527170 7529092 7549456 7578485 7605056 
945.431 7618948 7614261 7593726 7569078 7559267 7583206 7654086 7773550 
949.288 7929860 8099899 8255787 8374336 8440142 8450582 8413319 8343631 
953.145 8258185 8173532 8103950 8060540 8051088 8078970 8141255 8228367 
957.002 8324615 8413825 8481429 8520928 8535357 8535053 8532857 8539615 
960.859 8560465 8594193 8636304 8683153 8733760 8790526 8855483 8927180 
964.716 8998178 9056839 9090639 9091349 9059004 9001865 8932828 8863260 
968.573 8799891 8742076 8685080 8623495 8555734 8484098 8414433 8350995 
972.429 8294286 8239949 8181330 8113808 8038600 7963202 7900301 7861668 
976.286 7854178 7876244 7918691 7967353 8006637 8025030 8015075 7974135 
980.143 7903338 7806170 7688654 7558458 7425537 7299598 7188719 7097673 
984.000 7027961 6978732 6950247 6944422 6965499 7016916 7097134 7195255 
987.857 7291275 7360423 7378015 7329858 7216748 7055306 6872682 6696629 
991.714 6550818 6446319 6384345 6359026 6364405 6397290 6458762 6551054 
995.571 6672637 6815089 6963647 7098784 7203913 7270082 7298048 7297239 
999.428 7281504 7263714 7250809 7243701 7237063 7223789 7197647 7156280 
1003.285 7102388 7042711 6986510 6942604 6918128 6916344 6935972 6971257 
1007.142 7014054 7054969 7085986 7102961 7105958 7098953 7087906 7079486 
1010.999 7078543 7088108 7109899 7144524 7191617 7249866 7314256 7375622 
1014.856 7420043 7432312 7398405 7312571 7179624 7017522 6851407 6709550 
1018.713 6615576 6580724 6601715 6661904 6738860 6808963 6857332 6880626 
1022.570 6886315 6888032 6899040 6926107 6966274 7008060 7035773 7037053 
1026.427 7007285 6952267 6885777 6825355 6784427 6767465 6769754 6779244 
1030.284 6783148 6772110 6744648 6706117 6666514 6634820 6617056 6615138 
1034.142 6628630 6656655 6700061 6759657 6834813 6919745 7003783 7072818 
1037.999 7114985 7125729 7111415 7085919 7067194 7066857 7084538 7105689 
1041.857 7106632 7063893 6962469 6804083 6606021 6396685 6203682 6047051 
1045.714 5933872 5859007 5809608 5772503 5740505 5712739 5692797 5684572 
1049.571 5686587 5691824 5687795 5661812 5606427 5523665 5424982 5329105 
1053.429 5257563 5227615 5247368 5312904 5409850 5517356 5612267 5678664 
1057.286 5709718 5712034 5703037 5707401 5749671 5846245 6001595 6205262 
1061.144 6434011 6655848 6838347 6956173 6993749 6950247 6836765 6675060 
1065.001 6489670 6306779 6147523 6023936 5939414 5888629 5861156 5843827 
1068.859 5825961 5799500 5761322 5712001 5655200 5596660 5544069 5507390 
1072.716 5498296 5527793 5604682 5730600 5898974 6093252 6290945 6466598 
1076.573 6596333 6663889 6662140 6593338 6468347 6305232 6128401 5965011 
1080.431 5846010 5797485 5835096 5958393 6146851 6362858 6557916 6689865 
1084.288 6729841 6672906 6537364 6357210 6168460 5996085 5850913 5729157 
1088.146 5621062 5520544 5431256 5366340 5342120 5366943 5434175 5521282 
1092.003 5596660 5629285 5603373 5523363 5414481 5311595 5247301 5242338 
1095.860 5297743 5397673 5516517 5631266 5726773 5799735 5856857 5908244 
1099.718 5961114 6016209 6066035 6098863 6102425 6067681 5992020 5879930 
1103.575 5741445 5589276 5436389 5293417 5166351 5057859 4967962 4896145 
1107.433 4842198 4808727 4799078 4817203 4864949 4940715 5037612 5145830 
1111.290 5253304 5349701 5429142 5490712 5536753 5570515 5593203 5602299 
1115.148 5592129 5556721 5493497 5405959 5305826 5208970 5134833 5098792 
1119.005 5108246 5160382 5242774 5336619 5421761 5483296 5514906 5520678 
1122.862 5512960 5509068 5525007 5569172 5640228 5725665 5806854 5862063 
1126.720 5876874 5847118 5781837 5699982 5625022 5577798 5568837 5596761 
1130.577 5649762 5711833 5768306 5812529 5847655 5884431 5935652 6010565 
1134.435 6110658 6228992 6352166 6464211 6553409 6611505 6635930 6627957 
1138.292 6591051 6529661 6450623 6364641 6285667 6231883 6220791 6263581 
1142.150 6361715 6504233 6671628 6839525 6987957 7105554 7191112 7251382 
1146.007 7295959 7332553 7363220 7385025 7393787 7388833 7374948 7363860 
1149.864 7368410 7400023 7462109 7549793 7650107 7747948 7829044 7883465 
1153.722 7907421 7901719 7870272 7818450 7753243 7683224 7618172 7568741 
1157.579 7542814 7543185 7565403 7599053 7631459 7650984 7652130 7636280 
1161.437 7610248 7581891 7556705 7534959 7512135 7481964 7439761 7385598 
1165.294 7324230 7263242 7210280 7171203 7148398 7141998 7150756 7172550 
1169.151 7203643 7237569 7264084 7270048 7242959 7175279 7067800 6931090 
1173.009 6783384 6645956 6534740 6457989 6414002 6393759 6384882 6377317 
1176.866 6366019 6350385 6332969 6315419 6297030 6274473 6243782 6202103 
1180.724 6150682 6094193 6039727 5993633 5960073 5939549 5928867 5922620 
1184.581 5914592 5900452 5877042 5844566 5805578 5764545 5727008 5698505 
1188.439 5683230 5683364 5699109 5729391 5772335 5826902 5891954 5966254 
1192.296 6046547 6127292 6200288 6256791 6289970 6298576 6287213 6265531 
1196.153 6245362 6235412 6238202 6248186 6255043 6247245 6216052 6160831 
1200.011 6087875 6008482 5933906 5872676 5827876 5797149 5775928 5760650 
1203.868 5750544 5748429 5758971 5786371 5831771 5892290 5960308 6025952 
1207.726 6080147 6115934 6131157 6129006 6117244 6106357 6106592 6125747 
1211.583 6165301 6220488 6280255 6331052 6360034 6359967 6331658 6284121 
1215.441 6231480 6188357 6165973 6167687 6188760 6217631 6241194 6247681 
1219.298 6230875 6191381 6136097 6075947 6022323 5985604 5971763 5981807 
1223.155 6011841 6053905 6097317 6131426 6148363 6144364 6121714 6088077 
1227.013 6054510 6032436 6030118 6050848 6091673 6145103 6200053 6247211 
1230.870 6280154 6297534 6302476 6301097 6300492 6304964 6316260 6331926 
1234.728 6346652 6353881 6348468 6327623 6292121 6245563 6194642 6146750 
1238.585 6108474 6084751 6078803 6090463 6117916 6157739 6205599 6257093 
1242.443 6309435 6360942 6411749 6462966 6515131 6567772 6618873 6664596 
1246.300 6701339 6727318 6743470 6754138 6765682 6784360 6814382 6855615 
1250.157 6904427 6955567 7004356 7048335 7088344 7127010 7165038 7201117 
1254.015 7229415 7242858 7235446 7206170 7160322 7108013 7061233 7027490 
1257.872 7007521 6995365 6981829 6959540 6928700 6898266 6884464 6902878 
1261.730 6962604 7061940 7189124 7325848 7452704 7556064 7628997 7671319 
1265.587 7686731 7680357 7656885 7621443 7580879 7544129 7521574 7523091 
1269.444 7554041 7613182 7693106 7782590 7869327 7944371 8004780 8052573 
1273.302 8092607 8129742 8167285 8205878 8244812 8283648 8322352 8362243 
1277.159 8404299 8448116 8491295 8529748 8558945 8574996 8575504 8561006 
1281.017 8533836 8497985 8459772 8426629 8406292 8405684 8428115 8471495 
1284.874 8527552 8583243 8625624 8644890 8640428 8621231 8605751 8613423 
1288.732 8660709 8753943 8887914 9047028 9210668 9360692 9483674 9574714 
1292.589 9636400 9676242 9703314 9726693 9753971 9790638 9840763 9906047 
1296.446 9985818 10075980 10170774 10263552 10348716 10422934 10485216 
1299.822 10536372 10576636 10605461 10620876 10621148 10606853 10582170 
1303.197 10553822 10530872 10519704 10522182 10534132 10547100 10550733 
1306.572 10537323 10504496 10456772 10403759 10355944 10321706 10303995 
1309.947 10298938 10297548 10288184 10260329 10206322 10124781 10020062 
1313.323 9902115 9781996 9670211 9573833 9495324 9433048 9383918 9344373 
1317.180 9312754 9290006 9278463 9280426 9296506 9323215 9354259 9382597 
1321.037 9401964 9410395 9409921 9406400 9407280 9418386 9442800 9479238 
1324.895 9523366 9569024 9611196 9646428 9673735 9694335 9710260 9723948 
1328.752 9737774 9754242 9775862 9804669 9842086 9888081 9941812 10002160 
1332.610 10069164 10145064 10234478 10342710 10473574 10627090 10798392 
1335.985 10977475 11152111 11311921 11450391 11567400 11667455 11757081 
1339.360 11840768 11918954 11988228 12045013 12087733 12119487 12146132 
1342.735 12175879 12215955 12271235 12343328 12430469 12528642 12632672 
1346.111 12737852 12840702 12938662 13031487 13119586 13205311 13291806 
1349.486 13381905 13476637 13573475 13666642 13748269 13811030 13851291 
1352.861 13871508 13880300 13891384 13919164 13976065 14069387 14200317 
1356.236 14366116 14563020 14788741 15042981 15328020 15646735 16003499 
1359.612 16404185 16857938 17378448 17981210 18677678 19465766 20321742 
1362.987 21200594 22049188 22822892 23495134 24057772 24513112 24868324 
1366.362 25134468 25331786 25495074 25672766 25926848 26315780 26879372 
1369.737 27635536 28581768 29708568 31012176 32505248 34211564 36148936 
1373.113 38302516 40590724 42856816 44911592 46583388 47776244 48470456 
1376.488 48684788 48441044 47747212 46607880 45047568 43133304 40976192 
1379.863 38697696 36411744 34197336 32093752 30119408 28280298 26577740 
1383.238 25007712 23554318 22187778 20866340 19547764 18201598 16825906 
1386.614 15453424 14144825 12961670 11940069 11079978 10357063 9741637 
1389.989 9210093 8749109 8352515 8015817 7732736 7493998 7290028 7113705 
1393.846 6961358 6832861 6729135 6646898 6581329 6526096 6477898 6436567 
1397.704 6403780 6379671 6361177 6342147 6316730 6284053 6249564 6222001 
1401.561 6208926 6214035 6234236 6261026 6282608 6290205 6283112 6270439 
1405.419 6265900 6282003 6322379 6382293 6451666 6521017 6584626 6640707 
1409.276 6690101 6733240 6768273 6791563 6801121 6799741 6794659 6797048 
1413.133 6816637 6857870 6918499 6992200 7073054 7159581 7257514 7378048 
1416.991 7532126 7722347 7935057 8138925 8300028 8402441 8459637 8502310 
1420.848 8561445 8654962 8788159 8959176 9164270 9400000 9664655 9954931 
1424.706 10264264 10583019 10902314 11218884 11539021 11878871 12263907 
1428.081 12722088 13274451 13927546 14669835 15476567 16321506 17184916 
1431.456 18054742 18922506 19781154 20621802 21441696 22250552 23075450 
1434.831 23965290 24981318 26173474 27533886 28979360 30386694 31664364 
1438.207 32793802 33813600 34782384 35755020 36767340 37834372 38951072 
1441.582 40102520 41272256 42447456 43622948 44796196 45963672 47121072 
1444.957 48264860 49398904 50537852 51704904 52921928 54195596 55511680 
1448.332 56837768 58144616 59425736 60700556 62006600 63379652 64835988 
1451.708 66360108 67905904 69418688 70847440 72170120 73391536 74528968 
1455.083 75592976 76563096 77372304 77920856 78148280 78102672 77907016 
1458.458 77673024 77441408 77204856 76944648 76651912 76329424 75981648 
1461.833 75602200 75163000 74609384 73869320 72870384 71576624 70011776 
1465.209 68242272 66330576 64298256 62119244 59761040 57214920 54515012 
1468.584 51717336 48888872 46076064 43270952 40424896 37465656 34359076 
1471.959 31178006 28130806 25467914 23323820 21664754 20347956 19215888 
1475.334 18168880 17169646 16232515 15390186 14666647 14059256 13543666 
1478.710 13086871 12660917 12249081 11845705 11451582 11069237 10699216 
1482.085 10340911 9995515 9668314 9367260 9101094 8874961 8686601 8527214 
1485.942 8384335 8246973 8109858 7975216 7848814 7733309 7623669 7507213 
1489.800 7372353 7219477 7061671 6916681 6794793 6696225 6611875 6529358 
1493.657 6436768 6327791 6203246 6072956 5951675 5853365 5782006 5729257 
1497.515 5679638 5621364 5552459 5478532 5407402 5342858 5283120 5222250 
1501.372 5154213 5077034 4992731 4907639 4830102 4766683 4722164 4697143 
1505.229 4688133 4685420 4673463 4635082 4562751 4465156 4355702 4243766 
1509.087 4134501 4032086 3941063 3865605 3808342 3768133 3740627 3719004 
1512.944 3697550 3673056 3644253 3611141 3572253 3524449 3463925 3389084 
1516.802 3305174 3222682 3152855 3101092 3066588 3042463 3019841 2990980 
1520.659 2953115 2911550 2878262 2861918 2860150 2863286 2861018 2847777 
1524.516 2823897 2795517 2771674 2759970 2761870 2771307 2777943 2774408 
1528.374 2758936 2735128 2709221 2686049 2666080 2645577 2617375 2575676 
1532.231 2520450 2462865 2423213 2421714 2462998 2533781 2613108 2683816 
1536.089 2737295 2769573 2779544 2766072 2726859 2658745 2564310 2461299 
1539.946 2385164 2373237 2436674 2553712 2684949 2792549 2850912 2846876 
1543.804 2783946 2681082 2568010 2472462 2410952 2385364 2386830 2403921 
1547.661 2426745 2449636 2470529 2488691 2503587 2513185 2514584 2505253 
1551.518 2484392 2452368 2411318 2363375 2311241 2256881 2202395 2149280 
1555.376 2099236 2053857 2014909 1984418 1963714 1954029 1954395 1962683 
1559.233 1978593 2004556 2042139 2090912 2149447 2214384 2282328 2348317 
1563.091 2406753 2448703 2465464 2450002 2400589 2321667 2222909 2115617 
1566.948 2008684 1910330 1829101 1774136 1756370 1783485 1855321 1962117 
1570.806 2089647 2224375 2355646 2475361 2574976 2646077 2681649 2676715 
1574.663 2633776 2563877 2490490 2439740 2426845 2447803 2486458 2527249 
1578.520 2560744 2584342 2597575 2599808 2590042 2566877 2531515 2488457 
1582.378 2446271 2415383 2404788 2419281 2457600 2512585 2573310 2630543 
1586.235 2677948 2714422 2741763 2762371 2776343 2780644 2770240 2740597 
1590.093 2690884 2625842 2555578 2493023 2451902 2441306 2465031 2519450 
1593.950 2595109 2679182 2758169 2821730 2863686 2882598 2881497 2865587 
1597.807 2839572 2807389 2771774 2735095 2700952 2674981 2663679 2674247 
1601.665 2711488 2775275 2859950 2955083 3047468 3124353 3178688 3207794 
1605.522 3214203 3202420 3177019 3141274 3096320 3042930 2982206 2916754 
1609.380 2850778 2789815 2738929 2702786 2683449 2680648 2692251 2713622 
1613.237 2738996 2761437 2772374 2761437 2716823 2630676 2505620 2359211 
1617.095 2219979 2113120 2049197 2026260 2035514 2067907 2115517 2171158 
1620.952 2228171 2276832 2306477 2306711 2272835 2210987 2136893 2069005 
1624.809 2019935 1995069 1993106 2007552 2029722 2049230 2057420 2048398 
1628.667 2021633 1980856 1932428 1882608 1836787 1798490 1769711 1751180 
1632.524 1742331 1742032 1748120 1758998 1773870 1793133 1817655 1846304 
1636.382 1875554 1899581 1913858 1916054 1906736 1888432 1865504 1843542 
1640.239 1828934 1826938 1840181 1868432 1908832 1956359 2005022 2049064 
1644.097 2081989 2096805 2086983 2048165 1982454 1902043 1827237 1774236 
1647.954 1746323 1734647 1727295 1714188 1688541 1645800 1583842 1502275 
1651.811 1405431 1310770 1251584 1256602 1315922 1390805 1452005 1491369 
1655.669 1511651 1518068 1515940 1510055 1505400 1506398 1515674 1533297 
1659.526 1556041 1577590 1589395 1584673 1560331 1521393 1480032 1452072 
1663.384 1448182 1468595 1504436 1543738 1577157 1599472 1610613 1614338 
1667.241 1616799 1623617 1636421 1650191 1655147 1641177 1606289 1557870 
1671.099 1509224 1471986 1452537 1453102 1472584 1509556 1562326 1629137 
1674.956 1706005 1785348 1857418 1913425 1947572 1957590 1942613 1903241 
1678.813 1843010 1769678 1694629 1630102 1586535 1567879 1573599 1598773 
1682.671 1636488 1675669 1700683 1696890 1661599 1605658 1542740 1481062 
1686.528 1424446 1375781 1339286 1319478 1320807 1344371 1386318 1437976 
1690.386 1488543 1529340 1554445 1562526 1554345 1531701 1496024 1448282 
1694.243 1390573 1327454 1268698 1226330 1207192 1206859 1213405 1215731 
1698.100 1206760 1187223 1167222 1166624 1204600 1282655 1377476 1459718 
1701.958 1510653 1524751 1504469 1455629 1386750 1309042 1237129 1183768 
1705.815 1154930 1147089 1150312 1153335 1148086 1131642 1104701 1070653 
1709.673 1035180 1004293 983935 978356 989381 1016814 1057201 1104302 
1713.530 1149780 1184565 1200380 1192373 1161342 1113603 1059925 1015153 
1717.388 993433 1003230 1042786 1102874 1171209 1237728 1295782 1339785 
1721.245 1364846 1367305 1345269 1300966 1240785 1175661 1116095 1070653 
1725.102 1043417 1034184 1040162 1056902 1079289 1101611 1117656 1121509 
1728.960 1107723 1073643 1019902 950860 872001 788842 706063 629704 569848 
1733.299 543937 570445 653696 775066 905569 1023024 1118320 1190645 1241582 
1737.639 1272951 1286244 1283021 1265275 1235834 1197955 1154598 1108986 
1741.496 1064940 1027242 1001769 993566 1004525 1032457 1071351 1113836 
1745.354 1153003 1184598 1206294 1216827 1214933 1198320 1164232 1111809 
1749.211 1044048 968892 898530 846438 820909 822934 845973 880667 919182 
1753.551 957568 996953 1040561 1092809 1156325 1228723 1302595 1366607 
1757.408 1409819 1427039 1418728 1389044 1343839 1289335 1232012 1178950 
1761.266 1136990 1110315 1098788 1097227 1099020 1098954 1094935 1088656 
1765.123 1084737 1089753 1109052 1145694 1197623 1256702 1310338 1346665 
1768.981 1358896 1346864 1315689 1274513 1234737 1208055 1203603 1223207 
1772.838 1260457 1303858 1343241 1372856 1390107 1394961 1389143 1375116 
1776.695 1356403 1336960 1320674 1310538 1308510 1315323 1330046 1349523 
1780.553 1368867 1382828 1387016 1379238 1360093 1332606 1301631 1273583 
1784.410 1254841 1249491 1257898 1276906 1302063 1328983 1355738 1383160 
1788.268 1412844 1447351 1486781 1528941 1568811 1599405 1614338 1611577 
1792.125 1595814 1576260 1560697 1551486 1544636 1532831 1508825 1468828 
1795.983 1414108 1351351 1289733 1238359 1203204 1184598 1177555 1173501 
1799.840 1164199 1145262 1118520 1091613 1075204 1076831 1099153 1138618 
1803.697 1187157 1234737 1272885 1297244 1308510 1312100 1315456 1326025 
1807.555 1347595 1378440 1411581 1437245 1445423 1429831 1390240 1332772 
1811.412 1268000 1206095 1154498 1115098 1085966 1062582 1040859 1017876 
1815.270 991773 961818 927450 888303 844479 798269 754487 720235 705001 
1819.609 717181 761889 838835 942193 1060954 1180678 1286909 1365544 1406229 
1823.949 1404301 1363583 1297477 1224503 1164830 1131841 1130878 1158916 
1827.806 1207059 1261586 1303924 1316686 1287540 1216927 1117257 1007680 
1831.664 905104 819581 756047 714958 694647 692290 705665 732714 772311 
1836.003 824461 888370 961586 1038535 1111045 1169714 1207889 1223938 
1839.861 1221678 1209750 1199616 1201543 1222011 1261055 1310405 1353744 
1843.718 1372358 1353910 1299803 1224536 1147654 1087162 1052817 1046074 
1847.576 1062947 1095400 1133768 1169315 1196559 1214468 1225865 1236498 
1851.433 1252049 1276540 1309939 1347130 1379172 1395592 1387515 1351285 
1855.290 1289700 1211943 1130446 1059393 1009407 984998 984367 1001038 
1859.148 1027275 1055407 1080518 1098157 1103870 1093639 1062947 1009374 
1863.005 934921 846504 755682 674967 615602 582323 573099 579536 591812 
1867.345 602463 611023 624130 652468 703541 774734 853841 923100 965870 
1871.684 969323 928612 848396 743235 633985 544634 497461 505621 571109 
1876.024 682932 822104 964508 1089719 1186093 1250587 1287407 1303957 
1879.881 1306151 1295948 1271257 1229520 1170545 1099651 1027541 966501 
1883.739 927384 914201 923465 945946 971382 992968 1008145 1018175 1023755 
1888.078 1022393 1006850 968128 900920 809423 708154 616631 552297 524729 
1892.418 533022 568222 616730 666804 711373 749940 786485 825656 869013 
1896.758 912674 950296 975301 984666 979485 964276 944717 926421 913504 
1901.097 909852 920145 949665 1001603 1073377 1154963 1227560 1269163 
1904.955 1261453 1194865 1073609 914567 743401 583783 454140 362869 311074 
1909.294 296849 320126 381938 482202 613844 761258 899160 1001503 1046938 
1913.634 1027109 951093 843583 737560 661925 636971 667036 742605 842122 
1917.974 942791 1029268 1098223 1155495 1210680 1268100 1323632 1362752 
1921.831 1365111 1311335 1193469 1021397 821705 631762 485088 402931 388438 
1926.171 425848 482169 518194 502768 420939 281200 110781 -51719 -174382 
1930.510 -242937 -265157 -263600 -266282 -291415 -340583 -397426 -435759 
1934.368 -431356 -367367 -237241 -40852 220330 545463 928579 1349689 1773138 
1938.707 2143420 2394226 2469463 2334026 1996434 1515275 1002400 585906 
1942.565 365025 376997 581195 884983 1174864 1364413 1406661 1302262 1086697 
1946.904 814568 539956 300132 119829 11928 -15440 47317 208197 466977 806833 
1951.726 1192273 1568678 1876286 2069072 2124707 2053059 1887234 1676168 
1955.583 1463508 1278833 1132705 1020201 931667 863203 822469 825988 890063 
1959.923 1016315 1183469 1349058 1462677 1478768 1377543 1168551 891225 
1963.780 600107 349406 177966 97093 90365 121221 149427 138754 74425 -34391 
1968.602 -156430 -252043 -280819 -213198 -41713 214430 503763 757275 898496 
1972.942 870906 656251 278945 -196804 -686689 -1099948 -1373782 -1485704 
1976.799 -1454168 -1323541 -1144828 -958999 -787610 -636469 -500797 -372498 
1980.657 -241248 -95813 73895 275762 506948 750637 972578 1132539 1192971 
1984.996 1133735 959826 702645 411686 136235 -86139 -245586 -356938 -449131 
1989.336 -544547 -651357 -755560 -831596 -852827 -808016 -705546 -570888 
1993.193 -432548 -309394 -206276 -117609 -32105 56994 149294 238365 315882 
1997.533 377428 425019 464190 498787 528079 545762 544435 523137 492418 
2001.872 474141 496100 580365 733909 943621 1181841 1409620 1591657 1705140 
2006.212 1742132 1710762 1627009 1511352 1382097 1256834 1155196 1093307 
2010.069 1085003 1131509 1221546 1328385 1418994 1460882 1429765 1315855 
2013.927 1124134 870640 577114 268501 -27135 -277210 -446516 -505165 -439366 
2018.266 -262209 -13253 250665 464588 576251 557473 414008 179225 -92467 
2022.606 -344556 -539352 -660720 -718215 -738525 -754799 -793596 -865856 
2026.464 -962966 -1061376 -1128668 -1133625 -1059096 -907917 -704355 -485076 
2030.321 -290587 -149077 -71232 -47942 -57815 -75737 -83655 -75274 -58245 
2034.661 -43370 -39493 -46219 -55429 -56688 -42707 -15440 15208 32737 23724 
2039.482 -19482 -95349 -193393 -297839 -390640 -454063 -471605 -428807 
2043.340 -316149 -132979 108129 381208 647789 868681 1011799 1058596 1008179 
2047.679 877646 696306 495570 307360 157116 61600 31677 68095 159238 279045 
2052.501 390593 455135 442266 345029 186286 16501 -105287 -125891 -20708 
2056.841 198319 487144 785522 1039000 1209451 1288172 1290930 1247331 
2060.698 1184798 1121443 1062382 1004924 945514 886311 834188 799066 786883 
2065.038 796244 817821 840694 855036 856364 843749 817689 775432 712203 
2069.377 623068 509768 384392 271187 198650 190496 255604 382402 540819 
2073.717 688607 788045 814037 763349 651837 511128 375637 273375 222949 
2078.056 230674 291511 393081 518160 647623 761026 840196 871304 848264 
2082.396 775929 670487 556113 457921 398055 386979 422830 491656 573099 
2086.736 646760 698994 727072 738854 749243 771747 814502 874093 937445 
2091.075 984799 1000075 976430 922436 859319 816626 822336 890262 1014721 
2095.415 1169913 1320076 1426175 1462178 1421421 1317517 1176492 1029268 
2099.272 899360 797672 722558 664547 613711 565833 524596 499219 499948 
2103.612 531364 588693 656981 715655 743833 726341 659072 549013 412283 
2107.951 268369 138290 38934 -19349 -31111 3512 80423 191457 326028 469829 
2112.773 605582 717845 793921 828743 825490 796111 756910 723952 707855 
2117.113 710676 724649 734606 724881 682202 600737 484225 344200 196429 
2121.452 56364 -63016 -154675 -217073 -252573 -266084 -263037 -248036 
2125.310 -224425 -193525 -156695 -115655 -75174 -42508 -25976 -32238 -59802 
2129.649 -97668 -122280 -104558 -17560 152111 395800 678418 944949 1138983 
2133.989 1214468 1154730 976596 727603 468801 254908 124171 86621 131893 
2138.329 235978 373813 521511 659204 768627 830669 828577 753890 614076 
2142.668 435997 262036 139516 100805 149559 255306 365025 416926 364329 
2147.008 195965 -61591 -353131 -615591 -797598 -878620 -870287 -810397 
2150.865 -741370 -696647 -685135 -690097 -675144 -599775 -438804 -191836 
2154.723 109820 411189 644205 752927 707324 517132 225900 -95415 -373889 
2159.062 -564204 -657378 -682786 -686061 -715271 -800079 -950271 -1157848 
2162.920 -1403342 -1663716 -1911662 -2119539 -2255629 -2285954 -2187590 
2166.295 -1952335 -1599380 -1169414 -720167 -303004 50101 335048 574825 
2170.152 804775 1054411 1329614 1602831 1821248 1925606 1868099 1634392 
2174.010 1250056 777257 289555 -145467 -482461 -705446 -821047 -849355 
2177.867 -811290 -725592 -607286 -469851 -330551 -209157 -127282 -103233 
2181.725 -146858 -255620 -416824 -608676 -805238 -978901 -1106657 -1171925 
2185.582 -1169183 -1106293 -1004389 -889863 -785559 -702436 -632201 -547393 
2189.439 -407986 -178522 161227 603690 1114866 1637519 2107693 2472529 
2193.297 2697252 2775375 2721824 2565710 2337457 2062813 1761826 1448780 
2197.154 1137920 843417 579304 357431 182507 52852 -40686 -109030 -160306 
2201.494 -195744 -208329 -185246 -112906 13850 188242 387343 579835 728930 
2205.833 807099 802684 724881 599311 461902 348080 278249 254013 257362 
2210.173 259583 231602 156884 39862 -94620 -208396 -263633 -232969 -110421 
2214.513 87051 321817 550075 727437 824228 830934 760794 645101 524099 
2218.852 441039 427241 496333 639427 828345 1022227 1178485 1268233 1280595 
2223.192 1228357 1140146 1052252 993101 973973 985728 1003595 998215 945115 
2227.531 836910 684027 512056 349771 224541 153006 139549 179689 263694 
2231.871 380081 517464 665045 809821 935685 1025781 1064143 1040295 952388 
2236.211 808294 623566 416230 205545 8482 -162955 -297706 -388256 -428807 
2240.550 -414905 -347039 -230386 -76599 98154 273176 428734 548184 619484 
2244.890 638896 609198 542278 455765 371956 313760 298375 334451 417855 
2249.229 533089 654923 756678 818651 831664 801323 744795 686250 647026 
2253.569 641650 673573 735435 813074 889332 948170 977028 966800 912907 
2257.909 815863 681737 523866 362670 221756 124270 88178 119829 214098 
2262.248 355043 522407 694680 855767 995891 1109750 1195496 1251950 1279099 
2266.588 1279498 1259692 1231913 1210082 1207922 1232810 1282622 1345003 
2270.445 1402407 1437245 1437743 1402107 1337990 1259593 1180678 1111477 
2274.303 1055872 1012164 975998 943621 914600 891059 876550 874259 885846 
2278.642 910748 947340 993433 1045808 1099784 1148086 1181874 1191775 
2282.500 1170976 1118121 1039963 948967 861942 794352 756844 751898 775465 
2286.839 818784 872964 931733 993101 1057965 1127888 1202340 1277072 1344903 
2291.179 1397454 1427837 1433588 1417498 1386783 1350919 1319910 1300634 
2295.036 1296513 1306981 1328916 1357899 1389276 1419393 1445788 1466168 
2298.894 1478669 1480796 1469925 1444791 1406296 1358198 1307779 1264544 
2302.751 1238160 1236166 1262052 1314426 1387315 1472385 1560630 1644237 
2306.609 1716583 1772140 1805843 1812664 1789507 1736044 1657442 1564521 
2310.466 1473316 1399814 1356902 1349490 1373986 1418462 1468030 1510055 
2314.323 1537221 1549225 1550255 1546298 1540712 1533164 1520096 1497819 
2318.181 1465104 1426075 1388612 1363716 1360923 1385487 1437211 1511219 
2322.038 1599937 1694495 1787710 1872958 1944044 1996567 2026060 2029922 
2325.896 2008384 1963748 1901378 1827770 1750083 1674571 1606988 1552550 
2329.753 1516472 1504270 1519165 1560763 1623184 1694462 1761028 1809403 
2333.611 1831962 1828369 1805710 1775300 1748220 1731885 1727062 1729024 
2337.468 1730721 1726829 1716384 1703377 1694629 1695992 1709232 1730921 
2341.325 1753642 1769345 1773504 1767149 1757335 1754141 1768280 1804745 
2345.183 1863208 1937088 2016873 2092643 2157638 2207690 2241027 2257081 
2349.040 2255149 2234699 2195168 2138192 2067341 1988878 1910530 1839349 
2352.898 1779326 1729657 1685415 1640346 1588364 1527511 1459884 1391570 
2356.755 1329681 1280894 1249590 1237960 1247198 1279232 1337292 1425543 
2360.613 1547362 1702745 1885737 2085019 2282561 2457600 2592842 2675581 
2364.470 2702119 2678315 2616409 2532014 2438740 2346885 2260378 2178650 
2368.327 2098803 2018703 1939651 1866802 1807806 1770243 1758799 1772239 
2372.185 1804246 1845405 1886269 1919382 1941748 1954162 1957956 1953996 
2376.042 1939751 1910064 1860113 1787244 1694629 1591291 1491303 1409022 
2379.900 1354708 1332672 1338655 1362951 1392567 1417099 1430264 1431560 
2383.757 1425377 1418130 1415637 1420523 1431759 1445356 1456161 1459186 
2387.615 1451872 1434153 1408656 1379803 1353545 1335863 1330877 1340881 
2391.472 1364447 1396423 1428701 1451739 1457923 1442963 1408058 1359627 
2395.329 1307480 1261453 1229720 1216262 1221446 1242280 1275410 1317583 
2399.187 1366773 1421155 1478103 1533596 1582212 1618029 1636654 1636554 
2403.044 1619293 1589961 1554379 1519032 1489374 1468495 1458854 1461148 
2406.902 1475377 1500313 1532964 1568811 1602033 1627142 1640213 1640678 
2410.759 1630867 1616599 1604028 1598408 1601966 1613373 1627641 1638184 
2414.616 1638949 1624947 1594716 1549790 1493963 1432624 1370928 1313329 
2418.474 1262982 1222110 1192240 1175295 1173867 1191310 1229454 1288703 
2422.331 1365145 1450941 1534195 1601035 1640146 1644370 1613839 1556374 
2426.189 1485784 1417664 1366275 1340981 1344371 1372358 1415869 1464206 
2430.046 1506497 1534527 1543638 1533297 1506264 1468595 1428369 1393332 
2433.904 1370862 1364979 1376213 1400844 1432059 1462777 1486249 1499116 
2437.761 1501776 1498484 1495193 1497720 1510288 1533363 1563823 1595248 
2441.618 1620690 1632962 1628339 1606822 1573732 1538152 1511119 1503472 
2445.476 1521526 1565984 1630135 1702213 1767449 1811898 1826639 1808904 
2449.333 1762824 1696957 1622852 1551220 1489973 1444592 1417033 1407326 
2453.191 1413576 1433156 1461547 1493198 1522524 1543771 1553182 1549058 
2457.048 1532366 1505500 1471587 1433688 1393930 1354342 1317450 1286377 
2460.906 1265408 1258130 1266471 1289235 1321904 1358464 1393099 1422751 
2464.763 1448747 1476109 1511318 1559001 1619160 1686313 1749750 1797159 
2468.620 1818453 1809004 1770642 1711294 1641976 1573566 1513513 1465802 
2472.478 1429931 1403470 1383559 1368302 1356868 1349157 1345269 1344870 
2476.335 1347396 1352149 1359129 1369000 1382529 1399980 1419859 1439738 
2480.193 1455928 1465968 1469027 1467431 1466035 1471354 1488709 1520728 
2484.050 1566051 1619293 1672243 1715918 1742930 1749184 1734680 1702579 
2487.907 1659437 1612043 1566616 1527611 1496822 1474081 1457624 1445223 
2491.765 1435483 1427970 1423582 1423715 1429532 1440968 1456792 1474745 
2495.622 1492333 1508359 1522524 1536023 1550056 1565186 1579419 1589029 
2499.480 1589395 1577124 1551652 1516472 1478702 1446354 1425643 1418230 
2503.337 1420058 1422152 1413277 1385188 1334633 1266671 1192639 1128785 
2507.195 1091214 1090716 1131343 1208222 1310272 1421654 1527411 1616267 
2511.052 1682587 1726430 1752744 1768513 1779492 1788775 1795695 1796860 
2514.909 1788009 1766717 1734281 1695826 1659038 1631532 1618362 1619060 
2518.767 1628506 1637885 1638716 1625845 1599638 1566084 1535192 1516938 
2522.624 1518002 1540080 1578754 1625978 1671910 1708566 1729989 1734014 
2526.482 1720808 1692200 1651721 1603429 1553049 1507561 1473748 1458222 
2530.339 1464506 1492466 1538152 1594683 1654082 1709132 1754773 1788242 
2534.197 1808970 1817721 1816390 1807873 1796294 1787544 1787411 1801085 
2538.054 1830432 1873025 1921579 1966344 1998132 2011180 2005987 1988712 
2541.911 1969939 1959720 1965312 1987380 2021933 2059817 2091112 2108458 
2545.769 2107859 2089780 2057220 2015241 1968741 1922078 1879514 1844507 
2549.626 1820150 1808704 1810634 1824243 1846004 1871427 1895887 1916221 
2553.484 1931297 1941415 1947838 1951766 1953563 1952731 1947905 1938053 
2557.341 1923110 1903674 1881777 1859947 1841945 1831863 1833526 1849897 
2561.198 1882076 1927769 1981089 2033584 2075630 2098969 2099668 2079226 
2565.056 2044203 2003924 1968042 1943811 1933926 1937154 1949968 1967975 
2568.913 1987680 2007186 2025428 2041706 2054723 2063046 2066242 2065543 
2572.771 2064777 2069138 2083221 2109657 2146517 2188374 2227072 2255615 
2576.628 2269738 2269871 2260478 2248388 2240228 2239095 2244291 2252218 
2580.486 2257547 2256082 2246456 2230736 2214151 2202761 2202828 2218080 
2584.343 2249887 2296018 2352049 2411685 2467530 2512818 2542346 2552978 
2588.200 2544513 2519317 2482492 2440040 2398890 2365274 2343987 2337957 
2592.058 2347984 2372304 2407120 2446904 2485525 2517151 2538080 2547312 
2595.915 2547579 2544079 2543813 2552745 2574510 2608809 2651444 2695918 
2599.773 2734395 2761237 2773475 2772774 2763804 2753434 2749066 2755535 
2603.630 2775209 2806222 2845175 2886167 2923893 2954383 2974967 2985175 
2607.488 2985376 2977068 2961555 2940672 2916854 2892871 2872058 2857449 
2611.345 2850912 2852346 2860084 2870390 2879295 2884032 2883865 2879629 
2615.202 2873959 2868856 2865454 2862785 2858850 2851045 2838171 2821096 
2619.060 2802287 2784879 2772041 2764938 2763538 2766672 2772941 2782412 
2622.917 2796284 2816327 2844275 2879896 2921391 2964891 3006228 3041495 
2626.775 3068556 3086743 3096554 3099290 3096053 3087978 3076432 3062884 
2630.632 3050204 3040761 3037224 3040894 3051639 3068023 3087377 3107633 
2634.490 3126789 3144211 3159863 3173915 3186999 3199082 3210164 3220045 
2638.347 3228123 3233030 3233230 3226354 3210531 3185163 3152588 3117411 
2642.204 3086977 3068924 3069958 3092783 3136234 3194743 3260337 3324171 
2646.062 3378932 3419774 3444487 3453071 3447226 3429726 3404745 3377129 
2649.919 3352886 3337126 3334088 3344739 3366243 3392456 3415866 3429458 
2653.777 3429358 3416133 3394660 3373189 3359631 3360700 3379366 3414964 
2657.634 3463558 3519272 3575928 3627613 3669714 3698987 3713858 3714727 
2661.491 3704066 3686188 3666640 3651570 3645522 3651002 3667943 3693272 
2665.349 3723082 3752658 3778661 3799351 3814393 3824053 3828666 3828465 
2669.206 3823217 3813256 3800019 3786014 3774818 3769704 3772545 3782873 
2673.064 3797813 3812888 3822849 3824320 3816198 3799953 3779263 3758775 
2676.921 3742398 3732639 3730033 3733943 3742432 3753828 3766562 3779430 
2680.779 3791396 3801457 3808309 3811083 3808777 3801089 3787920 3769503 
2684.636 3746141 3718536 3687725 3655947 3626243 3602555 3588690 3587086 
2688.493 3597911 3618458 3644286 3669146 3687959 3697550 3697249 3688728 
2692.351 3675127 3659522 3643918 3629217 3615485 3602354 3590060 3579235 
2696.208 3570683 3564736 3561162 3558623 3555783 3551507 3545895 3539982 
2700.066 3535506 3534303 3537510 3544993 3555884 3568745 3582543 3596641 
2703.923 3611241 3626611 3643116 3660625 3678703 3696815 3714092 3729632 
2707.781 3742532 3751589 3755767 3754664 3749049 3741362 3735347 3734912 
2711.638 3743568 3762317 3789424 3820242 3849458 3872391 3886867 3894389 
2715.495 3899839 3909434 3928659 3960791 4005132 4057403 4110852 4158954 
2719.353 4196055 4219508 4229880 4230382 4225765 4220445 4217668 4218638 
2723.210 4222452 4226668 4228642 4226601 4220713 4213085 4207330 4207798 
2727.068 4216765 4234866 4259559 4286596 4310823 4328091 4336291 4335387 
2730.925 4327188 4313902 4297204 4277360 4253302 4223824 4188026 4146711 
2734.782 4102289 4058340 4019177 3988111 3966777 3954772 3949456 3946581 
2738.640 3941197 3929294 3907963 3877072 3839196 3799217 3762785 3735614 
2742.497 3721444 3720542 3730467 3746542 3763454 3776990 3785112 3788287 
2746.355 3788956 3789992 3793936 3801624 3812721 3825958 3839196 3851029 
2750.212 3860390 3866407 3868413 3865972 3858919 3847386 3832911 3817401 
2754.070 3803864 3795708 3795541 3805234 3824755 3852367 3884694 3917157 
2757.927 3944641 3962697 3968649 3962697 3948419 3931568 3919331 3917893 
2761.784 3930230 3955007 3987074 4019211 4043959 4056233 4055263 4044159 
2765.642 4028207 4013057 4003225 4000517 4004195 4012455 4023458 4036534 
2769.499 4052052 4071015 4094228 4122158 4153702 4187858 4223155 4258722 
2773.357 4293857 4327958 4360320 4389506 4414676 4435229 4451832 4466797 
2777.214 4483033 4503890 4531612 4566937 4609296 4656483 4706019 4755896 
2781.072 4804639 4851981 4898390 4944737 4991792 5040830 5092120 5145830 
2784.929 5201291 5257429 5312132 5363857 5411092 5453836 5493296 5531920 
2788.786 5572461 5617671 5668896 5726303 5788654 5854674 5922620 5991483 
2792.644 6061028 6131459 6203111 6276456 6351595 6428395 6506756 6586240 
2796.501 6666110 6745422 6822763 6897054 6967351 7033888 7098212 7162411 
2800.359 7229652 7302294 7382059 7469289 7563414 7662888 7765893 7870879 
2804.216 7976296 8080827 8183863 8285067 8385179 8485991 8590373 8701509 
2808.073 8822242 8954373 9097271 9248745 9405282 9562858 9719036 9872861 
2811.931 10025725 10180915 10342371 10513729 10698129 10896299 11107715 
2815.306 11330218 11560866 11796233 12033124 12269565 12504634 12738910 
2818.681 12974369 13214739 13463479 13724706 14001866 14297009 14610924 
2822.057 14943003 15291534 15654637 16030418 16418740 16820980 17240452 
2825.432 17682416 18153712 18660106 19207888 19801720 20444882 21140338 
2828.807 21891060 22700020 23571142 24507678 25512714 26588026 27734664 
2832.182 28953678 30247914 31622488 33085480 34647648 36319476 38110284 
2835.558 40025848 42067572 44232764 46515668 48909640 51406984 54000108 
2838.933 56680800 59438240 62259912 65130376 68032960 70952800 73876856 
2842.308 76796816 79708904 82611352 85502872 88380712 91237112 94061152 
2845.683 96836960 99544736 102162832 104664944 107020728 109196736 111154120 
2849.059 112852296 114252456 115318840 116024488 116351776 116294992 
2851.952 115859144 115061128 113929080 112498096 110811992 108918440 
2854.845 106863304 104693152 102448744 100166424 97881096 95623584 93422776 
2858.220 91306000 89294144 87403704 85644624 84020464 82530768 81173120 
2861.595 79944272 78841288 77860840 76999480 76251176 75608744 75062320 
2864.970 74600688 74213168 73887976 73613384 73377056 73164584 72959000 
2868.346 72741320 72489104 72179984 71791880 71305168 70706616 69990328 
2871.721 69159616 68226728 67212552 66142932 65045080 63946576 62872136 
2875.096 61842440 60877088 59992540 59203500 58522416 57957488 57512580 
2878.471 57187404 56978360 56880824 56891512 57009868 57237376 57576472 
2881.847 58028112 58589528 59254008 60010956 60847624 61751944 62712736 
2885.222 63720972 64769292 65851792 66963440 68100896 69263368 70452728 
2888.597 71672864 72927792 74218240 75540840 76885200 78237696 79582208 
2891.972 80904696 82196768 83455696 84683936 85886472 87069016 88236000 
2895.348 89390200 90533856 91669224 92799784 93928512 95058208 96190352 
2898.723 97324472 98460592 99598944 100742008 101893104 103055928 104233144 
2902.098 105424976 106630296 107847800 109078392 110326032 111596712 
2904.991 112897504 114232928 115602840 117002440 118423512 119859200 
2907.884 121305392 122763968 124241672 125748576 127293912 128884312 
2910.777 130520928 132200240 133913728 135649472 137392960 139126192 
2913.670 140829472 142481664 144060768 145546192 146919152 148161120 
2916.563 149254656 150179632 150913008 151430032 151704688 151712848 
2919.457 151435008 150857056 149971872 148780352 147291696 145523136 
2922.350 143501168 141259792 138835296 136264976 133583352 130818248 
2925.243 127994656 125134048 122256816 119384032 116535120 113726080 
2928.136 110968624 108268456 105627264 103045720 100525576 98071592 95690656 
2931.511 93389248 91171584 89037376 86981608 84996768 83075640 81213984 
2934.886 79412384 77675640 76011840 74430800 72940608 71547512 70254888 
2938.261 69062640 67968400 66967696 66056168 65230316 64488636 63834144 
2941.637 63273348 62814652 62466316 62233528 62115116 62102312 62179728 
2945.012 62328604 62528604 62762700 63019632 63292592 63578872 63876712 
2948.387 64182004 64487292 64780324 65045656 65266436 65425656 65507100 
2951.762 65498428 65389060 65172568 64846068 64410692 63870220 63231452 
2955.138 62502472 61691292 60806040 59854204 58842752 57779068 56670264 
2958.513 55523728 54346564 53145172 51924836 50689708 49442308 48184144 
2961.888 46915856 45637632 44349592 43052332 41747256 40436640 39123840 
2965.263 37812900 36508284 35215440 33939948 32688260 31466390 30280030 
2968.639 29133038 28027064 26961476 25933846 24940714 23978980 23046484 
2972.014 22142066 21265798 20418000 19599478 18810664 18053188 17329168 
2975.389 16642295 15995558 15391833 14831150 14311116 13826320 13369638 
2978.764 12934838 12516877 12113490 11725014 11352971 10999191 10664000 
2982.140 10346849 10045494 9757461 9480287 9211819 8950889 8696674 8448622 
2985.997 8207634 7975249 7754390 7548815 7361569 7193773 7044294 6909342 
2989.854 6783788 6662779 6544159 6428765 6319890 6221934 6137810 6067446 
2993.712 6007003 5950735 5892492 5828715 5759945 5690078 5624989 5570011 
2997.569 5526954 5493934 5465513 5435517 5398746 5354061 5303915 5254143 
3001.427 5210948 5179059 5159443 5149082 5141271 5128530 5104391 5065134 
3005.284 5011065 4946010 4876475 4809129 4750067 4703406 4669745 4647608 
3009.142 4632972 4620849 4606014 4584214 4553141 4512963 4465089 4413103 
3012.999 4361124 4312630 4270065 4234732 4206025 4182506 4161932 4142462 
3016.856 4122091 4099713 4074494 4046534 4015733 3982994 3949322 3915519 
3020.714 3883056 3852601 3824621 3798649 3774216 3750119 3725220 3699488 
3024.571 3671986 3642782 3611342 3576796 3538379 3495789 3449797 3402274 
3028.429 3356125 3314722 3280501 3254495 3235433 3220312 3206459 3191705 
3032.286 3176318 3162600 3153889 3152921 3160331 3174149 3190237 3203488 
3036.144 3209430 3206125 3194476 3176819 3157060 3138270 3122785 3111338 
3040.001 3104063 3100525 3099758 3100291 3099791 3095119 3083139 3061883 
3043.858 3031685 2996018 2960988 2934034 2920790 2924126 2942573 2970496 
3047.716 2999588 3021242 3028883 3018573 2989913 2945209 2888701 2825732 
3051.573 2762004 2703820 2656745 2625609 2613142 2619275 2640810 2671880 
3055.431 2706054 2736162 2757135 2766138 2762470 2747132 2722291 2690517 
3059.288 2654678 2618175 2583609 2553545 2529015 2509785 2494023 2479726 
3063.146 2465231 2450469 2437174 2427311 2422946 2424179 2428711 2432642 
3067.003 2431810 2423113 2405954 2381599 2353248 2324032 2295785 2269171 
3070.860 2244025 2219945 2197432 2177818 2162633 2152943 2148281 2147582 
3074.718 2148847 2150679 2153509 2158837 2168294 2183080 2201962 2221710 
3078.575 2237730 2245057 2241360 2226140 2201662 2171458 2139391 2108625 
3082.433 2081357 2058785 2042239 2032652 2030588 2035548 2045768 2057986 
3086.290 2068572 2074099 2072867 2064477 2050662 2033051 2013344 1992406 
3090.147 1970438 1947672 1925373 1905005 1888632 1877450 1871327 1868699 
3094.005 1866569 1863008 1857418 1850829 1845971 1845472 1850530 1860213 
3097.862 1871194 1880113 1883873 1881777 1875221 1867367 1861278 1858483 
3101.720 1857884 1856652 1850563 1836288 1812597 1781222 1746523 1714221 
3105.577 1690471 1679594 1683685 1701015 1727295 1756636 1782254 1799654 
3109.435 1807141 1806076 1800486 1795595 1795728 1802582 1815791 1832362 
3113.292 1849165 1864040 1876785 1888732 1902376 1918617 1936522 1952831 
3117.149 1963482 1964580 1954661 1934825 1908866 1881643 1857218 1838717 
3121.007 1826572 1820383 1818320 1818886 1820583 1822513 1823378 1822047 
3124.864 1817355 1808604 1795895 1779725 1761460 1742631 1724600 1708167 
3128.722 1694595 1685415 1682188 1686279 1698221 1716650 1738639 1760928 
3132.579 1779958 1794431 1805577 1816390 1830532 1850530 1876319 1904839 
3136.437 1931330 1950235 1957723 1952032 1934059 1906137 1871228 1832661 
3140.294 1793000 1754973 1722039 1696857 1682055 1678563 1684816 1696990 
3144.151 1710163 1719644 1722538 1718512 1709764 1699219 1690005 1683386 
3148.009 1679061 1675735 1671877 1666987 1661932 1658572 1658971 1664792 
3151.866 1676600 1693830 1715352 1739470 1764421 1788475 1810069 1827637 
3155.724 1839882 1846537 1847735 1844906 1839316 1832162 1824143 1815126 
3159.581 1804512 1791869 1777729 1763257 1750216 1740535 1735046 1733748 
3163.438 1735378 1737873 1738905 1736509 1729357 1717182 1700782 1682088 
3167.296 1663661 1648627 1639514 1638084 1643838 1655313 1668750 1680359 
3171.153 1687244 1688042 1683086 1674371 1664460 1655878 1650457 1649659 
3175.011 1654847 1667187 1687677 1715751 1749184 1783784 1814095 1834591 
3178.868 1842710 1838617 1826272 1810867 1797525 1788941 1784217 1779958 
3182.726 1772140 1758167 1738505 1717182 1699452 1690338 1691834 1701947 
3186.583 1715718 1726396 1728525 1718479 1696392 1665125 1629071 1592455 
3190.440 1559433 1532599 1513613 1503405 1502474 1511119 1529174 1556075 
3194.298 1590326 1630002 1672143 1712558 1746423 1769345 1777629 1770210 
3198.155 1748951 1718712 1685647 1655612 1632696 1617597 1607952 1599838 
3202.013 1589262 1574397 1555609 1534627 1514078 1495126 1477172 1458289 
3205.870 1436081 1409620 1380401 1351418 1327221 1312133 1308278 1316553 
3209.728 1335597 1362685 1394528 1427371 1457191 1480697 1494594 1498085 
3213.585 1492799 1482991 1474612 1473449 1481661 1497686 1515608 1528276 
3217.442 1528708 1514444 1487745 1455696 1426507 1406927 1399847 1403636 
3221.300 1412977 1422086 1426274 1423814 1415038 1401110 1383759 1363749 
3225.157 1342045 1321040 1303924 1295449 1300069 1319112 1349855 1386119 
3229.015 1418961 1439705 1443195 1428369 1399282 1361987 1323632 1289933 
3232.872 1264810 1250022 1246633 1254940 1274646 1303725 1338588 1373155 
3236.729 1400678 1416268 1417166 1405099 1385554 1366009 1352714 1349024 
3240.587 1354209 1363815 1371261 1370396 1357832 1333702 1301431 1267169 
3244.444 1238259 1220549 1217724 1230052 1254508 1285978 1317749 1344205 
3248.302 1361621 1368768 1367206 1360658 1353079 1347562 1345668 1346764 
3252.159 1348659 1349058 1346133 1339253 1329149 1317384 1305353 1295017 
3256.017 1287474 1283818 1284815 1291096 1302296 1317583 1334932 1352514 
3259.874 1368668 1382462 1393930 1404035 1413277 1421454 1428335 1432458 
3263.731 1433189 1430496 1425277 1419194 1412678 1405166 1395027 1379803 
3267.589 1358098 1330911 1302462 1278534 1264909 1265541 1280495 1305719 
3271.446 1334267 1359561 1375814 1381698 1378241 1368867 1356736 1343141 
3275.304 1327454 1307547 1281791 1250288 1215465 1182140 1155727 1140644 
3279.161 1139282 1151109 1173302 1201676 1231746 1259825 1283585 1301897 
3283.019 1315091 1324496 1331409 1337292 1342743 1347429 1349889 1347861 
3286.876 1339286 1322469 1297776 1266770 1233142 1200646 1173535 1154664 
3290.733 1145063 1144465 1150644 1160112 1168651 1171641 1165827 1148817 
3294.591 1121443 1086896 1051554 1022393 1006485 1007481 1024618 1052385 
3298.448 1081913 1104368 1113138 1106627 1088922 1068560 1054909 1055706 
3302.306 1074406 1108753 1152172 1195629 1231846 1255671 1266538 1266837 
3306.163 1261819 1256336 1254176 1258031 1268432 1285048 1307048 1333137 
3310.021 1361356 1389243 1413875 1431826 1440536 1438475 1426141 1405431 
3313.878 1379471 1351451 1324131 1299172 1277271 1258895 1244174 1233208 
3317.735 1226264 1223240 1223872 1227526 1233740 1242579 1254575 1270824 
3321.593 1291462 1315922 1341181 1363649 1378141 1380534 1368901 1343806 
3325.450 1308510 1267967 1227626 1192107 1164664 1147023 1139714 1142903 
3329.308 1156325 1179116 1210116 1246932 1286443 1325061 1359527 1387349 
3333.165 1406528 1416368 1416069 1405099 1383493 1352448 1315224 1276939 
3337.022 1244606 1224935 1222642 1238957 1270957 1312365 1355140 1392135 
3340.880 1418562 1433222 1437976 1435616 1429034 1419393 1405897 1386518 
3344.737 1359993 1325859 1286377 1245337 1207889 1178352 1160279 1154996 
3348.595 1162139 1179548 1204268 1233009 1262384 1288869 1310238 1324197 
3352.452 1329282 1325393 1312897 1293156 1268332 1241383 1215332 1194433 
3356.310 1182738 1183303 1197390 1223971 1258596 1294486 1324596 1343241 
3360.167 1348293 1342311 1332240 1327454 1336262 1363583 1407625 1461713 
3364.024 1514411 1553647 1570806 1561927 1529806 1482592 1431593 1387349 
3367.882 1357998 1347761 1356403 1380767 1415936 1455961 1495525 1529407 
3371.739 1553614 1565319 1563490 1549491 1526780 1500346 1475743 1457457 
3375.597 1447949 1446952 1451739 1458322 1461946 1459286 1448481 1430064 
3379.454 1405864 1380169 1357168 1341646 1337059 1345501 1366142 1395127 
3383.312 1426042 1450842 1461813 1453634 1425144 1379803 1325061 1270260 
3387.169 1224569 1194533 1182273 1186359 1202141 1223041 1242945 1257001 
3391.026 1262816 1260025 1250521 1237262 1223672 1212906 1207391 1207624 
3394.884 1213405 1223672 1236963 1252448 1269362 1287939 1308344 1330645 
3398.741 1353811 1376246 1395226 1408423 1413975 1411714 1402938 1389875 
3402.599 1375382 1361555 1349789 1340117 1331609 1322901 1312598 1299404 
3406.456 1282622 1262151 1238625 1213604 1189781 1170312 1159182 1159681 
3410.313 1174066 1202706 1243775 1293456 1346033 1395127 1434785 1459818 
3414.171 1467065 1456327 1429964 1393332 1353146 1316719 1289634 1275510 
3418.028 1274281 1283286 1297676 1311900 1321239 1323300 1317949 1307114 
3421.886 1293954 1281857 1273383 1270625 1274546 1284715 1299936 1317716 
3425.743 1334434 1346764 1351683 1347496 1335198 1317018 1297244 1279365 
3429.601 1266637 1260523 1260556 1265208 1271855 1278069 1281060 1278667 
3433.458 1269097 1252216 1229088 1203071 1179714 1164465 1162372 1175628 
3437.315 1202606 1237827 1273682 1303126 1321339 1326856 1321638 1309607 
3441.173 1294885 1280096 1266272 1253079 1240785 1230617 1225500 1229022 
3445.030 1243509 1268598 1300501 1332074 1355838 1365211 1358132 1336960 
3448.888 1308045 1279066 1257366 1248062 1253412 1272287 1301332 1335397 
3452.745 1368967 1397254 1417399 1428468 1431793 1429432 1424513 1418097 
3456.603 1410318 1399082 1381930 1357035 1324662 1287308 1250488 1220183 
3460.460 1201975 1199184 1212375 1239256 1275577 1316520 1357168 1393166 
3464.317 1420656 1435350 1433854 1413277 1373056 1315855 1247696 1177455 
3468.175 1114666 1067963 1043782 1044380 1068826 1113138 1171275 1236398 
3472.032 1301099 1359361 1405332 1435516 1448116 1444126 1426707 1401010 
3475.890 1373188 1348626 1331941 1325094 1328817 1341978 1361954 1386119 
3479.747 1410551 1432391 1448914 1458987 1462910 1462511 1460948 1460782 
3483.604 1464107 1471587 1481894 1492732 1501078 1504037 1499316 1485850 
3487.462 1463774 1434485 1399681 1362020 1324596 1290398 1262284 1242446 
3491.319 1231547 1228989 1232145 1238060 1243509 1246101 1245437 1242812 
3495.177 1239954 1239389 1241848 1246932 1253246 1258729 1262284 1263846 
3499.034 1264112 1263946 1263946 1263215 1259892 1251451 1237329 1218987 
3502.892 1201410 1190379 1191908 1208886 1239289 1277471 1315689 1346365 
3506.749 1364480 1368502 1360790 1346798 1333004 1323931 1322868 1329216 
3510.606 1340715 1354941 1369765 1384191 1397986 1410218 1419559 1424546 
3514.464 1424180 1418496 1409454 1399980 1393033 1390041 1390673 1392700 
3518.321 1393099 1389443 1381133 1369532 1356769 1344704 1333736 1322602 
3522.179 1308444 1290232 1268066 1245437 1227593 1220084 1225965 1245204 
3526.036 1273948 1306184 1334799 1353944 1359893 1351916 1331675 1302528 
3529.894 1268631 1233574 1200912 1173103 1151076 1134665 1122207 1111743 
3533.751 1101478 1090816 1080983 1074639 1073775 1078957 1088025 1097227 
3537.608 1102209 1100449 1092410 1081249 1071849 1068195 1072148 1082677 
3541.466 1095997 1107956 1116228 1120579 1124034 1129981 1141475 1157754 
3545.323 1175827 1190479 1198021 1197490 1191210 1182605 1174631 1167355 
3549.181 1158518 1145295 1125130 1098887 1070653 1046705 1033719 1035944 
3553.038 1052783 1080020 1111743 1143668 1173335 1202008 1231082 1262583 
3556.896 1297410 1334068 1369532 1400179 1422518 1433688 1431992 1417365 
3560.753 1391537 1357866 1321438 1288404 1264178 1252481 1254342 1266804 
3564.610 1283685 1297211 1300767 1291694 1274114 1257167 1250255 1257998 
3568.468 1277936 1303359 1327919 1346764 1358564 1363782 1363250 1356902 
3572.325 1343939 1322336 1291229 1252548 1211411 1175163 1151508 1145395 
3576.183 1156524 1179183 1204766 1225034 1234272 1232710 1225267 1219951 
3580.040 1224104 1241848 1272486 1311435 1351517 1386252 1410950 1423681 
3583.897 1424014 1412512 1388578 1350653 1296081 1224403 1140312 1055241 
3587.755 985961 945779 941695 971083 1025515 1093705 1165528 1232411 1288172 
3592.094 1330611 1360358 1381000 1396689 1410750 1423681 1432990 1435483 
3595.952 1429034 1415670 1400645 1391105 1393930 1412678 1445356 1485119 
3599.809 1520462 1541144 1539714 1515441 1473582 1423681 1374950 1333902 
3603.667 1303858 1284649 1274679 1272054 1275842 1286277 1304223 1330512 
3607.524 1363915 1401775 1439771 1474413 1503871 1528575 1550122 1570108 
3611.382 1588531 1603496 1610746 1605292 1583376 1544702 1493264 1435915 
3615.239 1380401 1334434 1304190 1294187 1306416 1338887 1384988 1433488 
3619.096 1472917 1494195 1494993 1478469 1451340 1420224 1389742 1363051 
3622.954 1341679 1326357 1317151 1313097 1312399 1311668 1306516 1292525 
3626.811 1266073 1227560 1184233 1151342 1146757 1179050 1240452 1313196 
3630.669 1380833 1434851 1471786 1492633 1500147 1498251 1490904 1480963 
3634.526 1470556 1460184 1450177 1441467 1435782 1435250 1441467 1454532 
3638.384 1471886 1488842 1500014 1500280 1487246 1460649 1423648 1380800 
3642.241 1336960 1295749 1258529 1224403 1191376 1157521 1121875 1085468 
3646.098 1051123 1023489 1007548 1006883 1022227 1052152 1093440 1142903 
3649.956 1197124 1251252 1299836 1337558 1361189 1370031 1365876 1352581 
3653.813 1335863 1322635 1321040 1336394 1369366 1412313 1453269 1480830 
3657.671 1489274 1479965 1458854 1433787 1411714 1397852 1394030 1399282 
3661.528 1410650 1424712 1438707 1450543 1459186 1463275 1461946 1454233 
3665.385 1440403 1422884 1405731 1394994 1397387 1417698 1457258 1510886 
3669.243 1566915 1610447 1632364 1635058 1629104 1625479 1630834 1645069 
3673.100 1662730 1672276 1658805 1607587 1515840 1400678 1293389 1216728 
3676.958 1175196 1161641 1166358 1183502 1210780 1248760 1297809 1356636 
3680.815 1421188 1485684 1544137 1592422 1629071 1655546 1675436 1693231 
3684.673 1712026 1732551 1753176 1769711 1777962 1774236 1757368 1730022 
3688.530 1697389 1664659 1634492 1606655 1579785 1554013 1531634 1515408 
3692.387 1507362 1507561 1513147 1519897 1523155 1519564 1508160 1490870 
3696.245 1472152 1457757 1452038 1457457 1473283 1496489 1521925 1544602 
3700.102 1559134 1562060 1552783 1534328 1512349 1493164 1480597 1475643 
3703.960 1476341 1479533 1482359 1483290 1482426 1481661 1482991 1488277 
3707.817 1497221 1507661 1515375 1516140 1506929 1488144 1462876 1436414 
3711.675 1411880 1389675 1367039 1341347 1311834 1280196 1249325 1222775 
3715.532 1203171 1191908 1189250 1194832 1208122 1228390 1254874 1285978 
3719.389 1319012 1349922 1374452 1388778 1392733 1389276 1384523 1384357 
3723.247 1391936 1405265 1418296 1423249 1414506 1392700 1364846 1341779 
3727.104 1333736 1344704 1371493 1405332 1435017 1451440 1447351 1420623 
3730.962 1374319 1316752 1258463 1208521 1170910 1144066 1123403 1105199 
3734.819 1091447 1088723 1105598 1146226 1207624 1282024 1360624 1435749 
3738.677 1502640 1558303 1601434 1632497 1653317 1666256 1672642 1672276 
3742.534 1662264 1636987 1591757 1528409 1458854 1401310 1367305 1357101 
3746.391 1363383 1377709 1392268 1402074 1404501 1399847 1390506 1379637 
3750.249 1369233 1358397 1345202 1330312 1317484 1312897 1321405 1343839 
3754.106 1376878 1413875 1447185 1468495 1471587 1453967 1417532 1368535 
3757.964 1315822 1269329 1236266 1221878 1228091 1254010 1295782 1348227 
3761.821 1404567 1458156 1502574 1532432 1544735 1539482 1521792 1499781 
3765.678 1481062 1469592 1463907 1458787 1448315 1428867 1401509 1372225 
3769.536 1350121 1343308 1354974 1382296 1418795 1457956 1495292 1529007 
3773.393 1558868 1585305 1607786 1625346 1636521 1639548 1634126 1620490 
3777.251 1600669 1577690 1555742 1539748 1533895 1540113 1556873 1579884 
3781.108 1603064 1620956 1629670 1627441 1615568 1597942 1580450 1568578 
3784.966 1565585 1570739 1580849 1591391 1599073 1603030 1604361 1604926 
3788.823 1605890 1607420 1608451 1607487 1604560 1601534 1601700 1608252 
3792.680 1623084 1645069 1671611 1698520 1722704 1742830 1760196 1777463 
3796.538 1796294 1815791 1831729 1838983 1832827 1810335 1771907 1721340 
3800.395 1666688 1619027 1588996 1580516 1589329 1606722 1625479 1641177 
3804.253 1651488 1655213 1651189 1639315 1621521 1603097 1591058 1590094 
3808.110 1600037 1616466 1632563 1642075 1641809 1631432 1614604 1596978 
3811.968 1584640 1581913 1589861 1605691 1625246 1642707 1653350 1655346 
3815.825 1650224 1642674 1636321 1632696 1630601 1628506 1624248 1617298 
3819.682 1607919 1598807 1593453 1595847 1607786 1628306 1655013 1684916 
3823.540 1715818 1745026 1769811 1787643 1796593 1796094 1787377 1773437 
3827.397 1756636 1737907 1716350 1690803 1660169 1626044 1592322 1565252 
3831.255 1550787 1552184 1567647 1590925 1614670 1631765 1638616 1635523 
3835.112 1626577 1617763 1616333 1628372 1657142 1700949 1753043 1803081 
3838.969 1840181 1855521 1846670 1816357 1771940 1723403 1682022 1657209 
3842.827 1654914 1675769 1714820 1762026 1806409 1839150 1854889 1852426 
3846.684 1833293 1801551 1761826 1719510 1679793 1646399 1620756 1601733 
3850.542 1584241 1560131 1518966 1453136 1365178 1275510 1217824 1216827 
3854.399 1271522 1361987 1465270 1565751 1653916 1725199 1778461 1814228 
3858.257 1833393 1837353 1826605 1801385 1762026 1710130 1648993 1583243 
3862.114 1518766 1461115 1414772 1383626 1370064 1375283 1397254 1431726 
3865.971 1472052 1511584 1544735 1566915 1574697 1566716 1544436 1513779 
3869.829 1485252 1468927 1470224 1489042 1522557 1567813 1621787 1680891 
3873.686 1739637 1790738 1828169 1849332 1855388 1850663 1839516 1825773 
3877.544 1811632 1798324 1786579 1776598 1768879 1764055 1762991 1765153 
3881.401 1769678 1774801 1778960 1781122 1780790 1777895 1773304 1767948 
3885.259 1763290 1760562 1760595 1763124 1766850 1769478 1768413 1760662 
3889.116 1743695 1717016 1683984 1653483 1637352 1646299 1683519 1742231 
3892.973 1808471 1867434 1907035 1921213 1910163 1878682 1835024 1787610 
3896.831 1744161 1710063 1687710 1676667 1674704 1678396 1683519 1686080 
3900.688 1682587 1670413 1649526 1622552 1595814 1577690 1576326 1595913 
3904.546 1634027 1682986 1732983 1776232 1807873 1827237 1835589 1834691 
3908.403 1826139 1811533 1792168 1770376 1749750 1734780 1729357 1735844 
3912.260 1753309 1778428 1805943 1830798 1849132 1859514 1861810 1857152 
3916.118 1846703 1831363 1811333 1788242 1764255 1743096 1728326 1721939 
3919.975 1723269 1729424 1735312 1736476 1730854 1719078 1704375 1691735 
3923.833 1685548 1687643 1696525 1708034 1717548 1722438 1722172 1718313 
3927.690 1713257 1708600 1704940 1701481 1696824 1689606 1679926 1669316 
3931.548 1661133 1658572 1664027 1678829 1701148 1728825 1758433 1786645 
3935.405 1810568 1827737 1836388 1836088 1827504 1812897 1795362 1778694 
3939.262 1766317 1760063 1760994 1767515 1777030 1784849 1786346 1777463 
3943.120 1758000 1730754 1702612 1681057 1673473 1684982 1717115 1767216 
3946.977 1828435 1891627 1946773 1986282 2006653 2008650 1995768 1972502 
3950.835 1943179 1910896 1878648 1849531 1826838 1813562 1811998 1821448 
3954.692 1839582 1861677 1882941 1898915 1907235 1907900 1901844 1890961 
3958.550 1876019 1857152 1834358 1808072 1779758 1752278 1728858 1712591 
3962.407 1704741 1705273 1712990 1725997 1742531 1761094 1779825 1796494 
3966.264 1808538 1813562 1810568 1800553 1786712 1773936 1766051 1765818 
3970.122 1772605 1783085 1792135 1795263 1789407 1774602 1752611 1727128 
3973.979 1701980 1680126 1663828 1654614 1653184 1659869 1673340 1691302 
3977.837 1709830 1724800 1733283 1734613 1731353 1728592 1732052 1745591 
3981.694 1769711 1800985 1833127 1859448 1875720 1881510 1880379 1877484 
3985.552 1878349 1885703 1899281 1915588 1930365 1939751 1942147 1938386 
3989.409 1931197 1924042 1918850 1916387 1915355 1913991 1909797 1901012 
3993.266 1887201 1868332 1845572 1819984 1793898 1768979 1747720 1732152 
3997.124 1724068 1724234 1732384 1746989 1765519 1784915 1802216 1814727 
##END=
