##TITLE=ma_3 Sep 07 10:09:53 2026 (GMT+02:00)
##JCAMP-DX=5.01  $$ Nicolet v. 970
##DATATYPE=INFRARED SPECTRUM
##ORIGIN=Vojna akademija
##OWNER=Nicolet
##LONGDATE=2026/09/07
##TIME=10:10:21
##SPECTROMETER/DATA SYSTEM=Nicolet iS20
##DATA PROCESSING=
Ratio against background
%Transmittance->Absorbance
Truncated
ElementMultiply or ElementDivide
##COMMENTS=
Number of sample scans: 8
Collection length: 11,90 sec
Sample gain: 8,0
Background collected on: Mon Sep 07 10:04:03 2026 (GMT+02:00);
Number of background scans: 8
Background gain: 8,0
Sample spacing:  1,000
Number of scan points: 12415
Resolution points: 8286
Number of FFT points: 65536
Apodization: N-B strong;
Phase correction: Mertz;
Laser frequency: 15798,00 cm-1
Number of rejected sample scans: 0
Number of rejected background scans: 0
Bench serial number: BER2010005;
##RESOLUTION= 4,000
##XUNITS=1/CM
##YUNITS=ABSORBANCE
##FIRSTX=400.156891
##LASTX=4000.123047
##FIRSTY=-0.000909
##MAXX=4000.123047
##MINX=400.156891
##MAXY=0.266532
##MINY=-0.010145
##XFACTOR=1.000000
##YFACTOR=1.000000E-009
##NPOINTS=7468
##DELTAX=0.482117
##ZPD=6100
##XYDATA=(X++(Y..Y))
400.157 -908512 -4732173 -7730345 -9615873 -10144847 -9235945 -7045550 
403.532 -3984063 -666873 2225007 4037537 4412835 3393759 1422884 -872040 
407.389 -2864282 -4108706 -4432014 -3882996 -2672239 -1057046 708054 2425179 
411.246 3936616 5063826 5614416 5413877 4381975 2611609 380611 -1919382 
415.103 -3931431 -5364564 -6051816 -5937698 -5066283 -3593094 -1816282 
418.477 -204720 782867 926554 362306 -566785 -1488478 -2095930 -2183930 
422.334 -1614334 -370280 1409587 3394627 5149586 6275716 6542039 5974451 
426.191 4796867 3333687 1871427 618489 -340153 -1025843 -1521695 -1913609 
430.048 -2250125 -2530054 -2716858 -2769045 -2667267 -2424858 -2079772 
433.423 -1676919 -1250267 -825974 -427020 -75108 208363 418253 574592 725047 
437.762 924495 1216728 1618229 2113320 2665313 3235333 3803396 4375348 
441.619 4975503 5617067 6279649 6899713 7396315 7705922 7821284 7789438 
445.476 7691588 7591366 7501044 7360457 7065611 6512810 5665203 4580330 
449.333 3403877 2316670 1477272 982408 824759 895707 1017212 1025714 821108 
453.672 399946 -170076 -789429 -1373517 -1873559 -2268616 -2556208 -2737338 
457.529 -2813950 -2792947 -2695290 -2547249 -2357175 -2097909 -1697811 
460.904 -1065806 -120392 1148551 2641210 4128948 5324140 5971562 5924400 
464.761 5198709 3964369 2506186 1125429 88742 -466674 -560696 -336279 22664 
469.100 376565 665045 915065 1199616 1589861 2102598 2678315 3194776 3526487 
473.439 3591964 3394327 3004993 2534881 2090379 1752844 1572868 1559533 
477.296 1681190 1865670 2020501 2046900 1866203 1444791 802518 20112 -780631 
481.635 -1447200 -1848353 -1908199 -1624138 -1068020 -366605 326791 884053 
485.492 1223008 1330179 1255173 1088756 931069 859817 918252 1099685 1354276 
489.831 1601434 1763656 1791436 1683286 1485119 1277703 1140545 1118254 
493.688 1208122 1365444 1530969 1657209 1730688 1772938 1827337 1930598 
497.544 2091645 2282095 2448570 2531348 2491490 2324699 2063778 1765120 
501.401 1484021 1256834 1086198 949167 815498 666671 502834 336440 180419 
505.740 40557 -87961 -213860 -340848 -460981 -557288 -614301 -630579 -624128 
510.079 -627899 -672762 -772826 -911355 -1044585 -1112275 -1064351 -879546 
513.936 -570425 -177065 250963 667500 1050193 1400213 1736077 2076130 
517.793 2425878 2769707 3077132 3313721 3457412 3504708 3469670 3376762 
521.650 3249654 3107667 2961989 2816860 2672647 2527482 2377135 2218713 
525.507 2051560 1880811 1717747 1576426 1467265 1389908 1330046 1262351 
529.364 1162837 1020268 851019 700587 642281 752695 1081714 1636188 2365574 
533.703 3173548 3929796 4515005 4845548 4896145 4702402 4345059 3922473 
537.560 3517100 3184663 2944275 2785480 2682049 2608542 2552911 2519084 
541.417 2521950 2579009 2698452 2870757 3067956 3247818 3366744 3387013 
545.274 3289215 3076332 2773675 2420714 2059117 1727394 1451141 1245736 
549.131 1118852 1073144 1106893 1214568 1387349 1612642 1878049 2172557 
552.988 2485758 2807389 3123752 3414163 3653241 3813691 3873528 3824554 
556.845 3677500 3462957 3222348 3002424 2839372 2751667 2740430 2793683 
560.702 2893371 3020908 3161332 3299297 3417402 3496491 3514896 3455442 
564.559 3311016 3088111 2804555 2483292 2146650 1807606 1472451 1144664 
568.416 832295 553591 336275 207700 188507 281366 469265 717414 983802 
572.755 1229587 1426341 1564288 1650490 1707069 1761726 1840980 1960319 
576.612 2117548 2290522 2442972 2538513 2548845 2468030 2317570 2145817 
580.469 2010215 1961950 2023830 2180116 2381832 2565877 2680848 2700986 
584.326 2637410 2529848 2432676 2389795 2421447 2520416 2660445 2808123 
588.182 2933967 3020174 3056811 3038158 2959654 2817628 2615442 2368372 
592.039 2105928 1862210 1665590 1527877 1441533 1385587 1339053 1292392 
595.896 1253246 1241682 1277271 1367338 1497819 1635922 1739237 1775101 
599.753 1730388 1617098 1464073 1305154 1165727 1056005 975400 919780 888834 
604.092 887141 919049 981677 1058961 1125363 1154996 1133668 1068627 989614 
608.431 938474 949731 1039896 1197456 1390008 1573699 1713922 1793865 
612.288 1818054 1804512 1773337 1735944 1692134 1632630 1549590 1444558 
616.145 1332838 1239256 1189482 1201510 1278534 1409720 1574264 1750049 
620.002 1917286 2061681 2173589 2246922 2277365 2264242 2212785 2136261 
623.859 2053158 1987979 1960819 1982986 2050961 2147382 2241793 2300781 
627.716 2299083 2224208 2083255 1900213 1712491 1556939 1460217 1430430 
631.573 1454499 1504203 1546797 1560131 1540912 1506830 1487413 1514544 
635.430 1605325 1753842 1931696 2098370 2214816 2253084 2206224 2085485 
639.287 1915255 1722138 1530338 1357234 1212475 1100681 1021895 972578 
643.144 946012 933095 926985 925159 931534 954612 1002499 1075569 1162471 
647.483 1242346 1294054 1307081 1292326 1281226 1319444 1442996 1663096 
651.340 1953929 2260711 2511818 2645444 2633910 2489290 2258713 2001094 
655.197 1771474 1599904 1489806 1426208 1390373 1371792 1372524 1401409 
659.054 1465603 1559832 1667054 1763190 1829899 1863341 1875620 1888665 
662.911 1920980 1979425 2054124 2123575 2163033 2155907 2097038 1997133 
666.767 1883307 1801917 1802050 1904805 2080125 2268638 2422980 2522050 
670.624 2563544 2549379 2480693 2358578 2191205 1997666 1806309 1652685 
674.481 1567048 1564920 1643173 1779758 1940017 2086617 2194868 2256548 
678.338 2282628 2294153 2312673 2349317 2398591 2437740 2436174 2367340 
682.195 2218746 2000761 1746357 1505932 1329747 1256336 1298706 1440037 
686.052 1639315 1843176 2003491 2085652 2080957 2006054 1897184 1796061 
689.909 1740768 1757867 1857651 2036946 2281195 2570476 2880463 3187500 
693.766 3471774 3718704 3922440 4086836 4226066 4357743 4498634 4657286 
697.623 4830102 5002819 5157264 5280906 5374625 5456822 5558164 5715962 
701.480 5958830 6298240 6722606 7200207 7684404 8125320 8485585 8743632 
705.337 8899818 8972368 8995810 9010660 9056433 9167417 9363400 9651239 
709.194 10025522 10473710 10981349 11536469 12132605 12767128 13437061 
712.569 14136541 14853368 15573543 16287655 17000326 17733806 18526786 
715.943 19425328 20463462 21651204 22962742 24342518 25708798 26976954 
719.318 28081600 28980668 29662554 30135210 30414732 30513538 30439502 
722.693 30196940 29792948 29244206 28580246 27838726 27066376 26306522 
726.068 25589850 24930432 24322054 23743710 23167778 22573552 21953718 
729.443 21318658 20691820 20102324 19573170 19112902 18714622 18360670 
732.817 18031946 17714444 17406968 17119356 16868894 16670803 16533412 
736.192 16453221 16415987 16399333 16378138 16331242 16243935 16110701 
739.567 15935952 15732720 15521000 15322803 15159142 15042775 14975343 
742.942 14946295 14936521 14921467 14878329 14792547 14658147 14478191 
746.317 14262185 14022193 13769644 13515397 13269907 13041150 12834491 
749.692 12649898 12478581 12304979 12109300 11873831 11589178 11259619 
753.066 10904284 10555519 10248354 10015451 9878963 9845543 9904420 10029794 
756.923 10188547 10342778 10461931 10528700 10540208 10507178 10448965 
760.298 10385806 10329069 10277971 10220264 10139806 10025454 9880183 
763.673 9723948 9591379 9520013 9535288 9645310 9835104 10073436 10321536 
767.530 10548356 10734808 10875609 10974723 11035996 11057035 11028281 
770.905 10937208 10776993 10552973 10286385 10006228 9744415 9525296 9359066 
774.762 9243092 9165353 9111685 9069966 9032345 8992935 8944090 8874285 
778.619 8768853 8613727 8403759 8146353 7864671 7590455 7357997 7192560 
782.475 7101748 7071841 7070595 7058438 6996746 6862415 6653661 6390262 
786.332 6104677 5836237 5618578 5470949 5398478 5394217 5444743 5535176 
790.189 5651674 5780495 5905557 6007440 6065296 6059987 5982714 5837749 
794.046 5644995 5433269 5235530 5076464 4967929 4908611 4889007 4899864 
797.903 4937766 5007612 5120182 5285400 5505846 5773309 6069496 6371466 
801.760 6655377 6902945 7104510 7256941 7362849 7426278 7453041 7448626 
805.617 7420144 7376094 7325949 7278640 7242555 7224867 7233492 7277292 
809.474 7365781 7507280 7702852 7944203 8210976 8474503 8703199 8869111 
813.331 8957756 8970440 8924101 8843849 8757729 8686703 8640800 8618932 
817.188 8611598 8604332 8581621 8531775 8445987 8319819 8153375 7950074 
821.045 7716984 7463390 7200443 6939103 6690202 6464816 6273867 6128166 
824.902 6037946 6009019 6041642 6128502 6256119 6405595 6556335 6689394 
828.759 6787658 6837876 6830639 6759085 6620454 6416928 6158042 5861089 
832.616 5551955 5262125 5021020 4853456 4772646 4777771 4853690 4974062 
836.473 5108246 5225301 5305525 5345340 5358557 5372009 5419614 5530074 
840.329 5716063 5969512 6263111 6559867 6822258 7027052 7168609 7258862 
844.186 7318535 7366590 7411853 7449569 7464367 7439997 7368444 7255257 
848.043 7118858 6984018 6874466 6802299 6766388 6752893 6741822 6712747 
851.900 6650734 6550818 6418576 6269598 6124066 6005592 5933301 5915868 
855.757 5948114 6011035 6076216 6114220 6107970 6056929 5980195 5907203 
859.614 5868410 5881845 5947443 6047555 6157773 6257329 6335961 6395743 
863.471 6444234 6485499 6512944 6510287 6459031 6350721 6196356 6027295 
867.328 5885069 5810346 5825189 5926583 6088783 6275683 6452608 6596837 
871.185 6701844 6773557 6821383 6852720 6870628 6876822 6875678 6877966 
875.042 6897424 6946847 7030184 7139472 7256537 7357423 7421357 7435076 
878.899 7394967 7304214 7170260 7002167 6810343 6611135 6425436 6278305 
882.756 6192759 6181332 6241227 6353512 6491351 6625232 6732803 6804385 
886.613 6839323 6843699 6825085 6790688 6747946 6708439 6687409 6699455 
890.470 6752691 6840939 6943850 7030756 7073795 7061536 7004928 6934188 
894.327 6885574 6885574 6935198 7007487 7056282 7038367 6926411 6723650 
898.183 6458359 6174375 5910897 5689205 5510779 5363287 5233383 5116192 
902.040 5020819 4965851 4971012 5045993 5187073 5376336 5588504 5794530 
905.897 5969882 6095805 6159689 6157134 6092345 5982009 5853264 5740606 
909.754 5678328 5687325 5769817 5906665 6066539 6214304 6325875 6396516 
913.611 6440031 6480084 6539684 6631355 6752119 6886113 7011192 7108384 
917.468 7165679 7179961 7154630 7097303 7017354 6924862 6832726 6754004 
921.325 6700061 6677079 6682294 6704031 6724154 6725332 6694677 6629168 
925.182 6534504 6422813 6307250 6199313 6107634 6038416 5996387 5986175 
929.039 6009154 6063716 6143624 6240152 6344837 6453281 6566528 6689730 
932.896 6828014 6980247 7137316 7282784 7397697 7467232 7487323 7466491 
936.753 7422267 7374139 7337743 7320018 7319041 7327229 7336934 7343472 
940.610 7346370 7348392 7353380 7363456 7378285 7395641 7411987 7423413 
944.467 7427020 7421425 7408482 7394697 7391125 7411516 7468480 7567055 
948.324 7700964 7851918 7995600 8107697 8173869 8195073 8186328 8169243 
952.181 8161444 8169344 8185450 8193858 8179170 8137541 8078768 8024153 
956.037 7994352 8001067 8039747 8092168 8133489 8145813 8125083 8083595 
959.894 8041975 8020609 8029621 8065771 8115495 8162524 8197572 8220600 
963.751 8239713 8264736 8301514 8347178 8392949 8428250 8447170 8451461 
967.608 8449130 8448285 8453589 8462373 8466698 8457981 8433419 8398523 
971.465 8367005 8355048 8375653 8433319 8522009 8626638 8726018 8799891 
975.322 8829748 8802292 8711245 8558201 8353528 8116879 7876986 7663259 
979.179 7501516 7406561 7376566 7394327 7430525 7454322 7438952 7370365 
983.036 7248283 7084841 6898165 6706555 6525019 6361917 6220556 6101350 
986.893 6004685 5933133 5891450 5885069 5916372 5981774 6070134 6161805 
990.750 6233664 6264959 6242471 6166343 6051184 5924165 5814141 5746783 
994.607 5735569 5778782 5862836 5968673 6079509 6186373 6289869 6397424 
998.464 6516913 6650936 6792740 6926579 7033517 7095013 7100368 7048873 
1002.321 6950146 6820508 6679300 6545638 6433944 6352705 6303316 6280658 
1006.178 6274506 6272556 6264253 6243513 6211212 6173636 6141238 6123596 
1010.035 6125713 6146515 6179416 6214371 6241665 6254807 6251480 6232690 
1013.891 6201431 6159890 6109213 6048966 5978784 5898873 5811622 5721703 
1017.748 5636234 5565313 5521652 5517960 5565917 5671010 5829588 6027228 
1021.605 6239916 6439324 6596972 6693566 6721227 6685222 6599731 6482943 
1025.463 6352200 6219749 6093924 5980934 5887084 5820051 5786740 5790736 
1029.320 5829521 5892324 5961753 6016108 6035762 6006634 5924870 5796780 
1033.177 5638953 5474740 5327931 5220573 5166820 5169972 5222988 5312099 
1037.035 5420218 5532256 5638650 5734864 5818036 5884599 5926247 5930010 
1040.892 5884464 5783449 5632306 5449441 5263969 5105028 4995345 4944536 
1044.750 4947719 4990686 5056384 5131815 5209607 5287178 5362012 5428471 
1048.607 5478163 5502558 5499504 5476115 5449273 5440516 5466519 5534303 
1052.464 5637408 5761322 5888831 6008213 6117312 6219984 6319958 6413498 
1056.322 6485163 6512137 6471609 6351562 6157907 5915466 5661510 5430820 
1060.179 5250420 5130608 5067547 5048406 5059636 5091819 5139259 5198239 
1064.037 5261152 5314078 5340006 5322295 5253438 5139058 5000104 4865686 
1067.894 4766046 4724911 4751340 4839651 4970610 5119344 5260582 5373887 
1071.752 5447193 5475512 5460111 5405624 5320652 5215308 5102010 4995881 
1075.609 4912230 4864513 4861531 4904020 4982307 5078308 5171280 5241030 
1079.466 5275205 5273360 5245222 5207394 5175974 5161388 5162461 5168966 
1083.324 5164037 5132721 5066206 4966119 4841963 4709871 4585588 4480723 
1087.181 4401823 4351318 4327891 4330434 4358279 4411129 4487987 4586860 
1091.039 4703105 4828394 4953316 5064966 5150391 5198910 5202498 5158974 
1094.896 5073649 4959081 4831945 4709938 4608157 4534090 4488356 4465190 
1098.754 4456887 4454511 4451163 4441355 4420333 4385088 4334283 4271036 
1102.611 4203382 4144971 4111019 4112625 4153000 4223691 4308447 4386125 
1106.468 4439849 4461741 4454076 4426526 4391046 4356438 4324645 4293121 
1110.326 4258957 4221817 4188026 4168054 4171666 4205256 4267824 4352121 
1114.183 4447280 4543799 4634714 4716771 4788559 4846888 4887567 4905327 
1118.041 4897485 4866389 4819884 4770267 4728495 4700894 4686860 4679927 
1121.898 4671789 4656214 4632202 4604775 4581469 4569046 4572294 4592385 
1125.755 4629523 4684616 4760552 4860593 4986362 5135034 5298079 5462594 
1129.613 5616497 5750376 5860955 5951037 6025582 6088278 6138718 6171955 
1133.470 6181231 6161570 6112540 6039223 5951541 5861626 5780461 5717943 
1137.328 5682592 5680443 5716096 5790400 5898268 6027094 6160024 6277532 
1141.185 6363565 6411917 6428025 6428193 6433674 6465253 6535245 6645721 
1145.043 6787322 6944591 7101277 7243734 7365781 7467974 7555693 7636416 
1148.900 7716816 7800469 7886197 7968331 8037688 8083830 8097671 8075122 
1152.757 8018585 7937757 7846891 7761339 7693713 7649601 7628019 7621949 
1156.615 7622050 7619285 7607854 7586072 7555659 7519551 7481930 7446738 
1160.472 7416740 7393754 7377610 7366152 7355267 7340844 7320995 7298655 
1164.330 7282346 7284435 7318063 7390383 7498583 7627479 7753885 7849960 
1168.187 7892170 7869563 7784851 7654221 7499965 7345123 7205025 7084336 
1172.045 6977755 6873860 6760364 6629067 6479580 6319823 6163621 6026355 
1175.902 5921847 5857328 5831603 5835398 5854070 5871265 5872374 5849536 
1179.759 5801481 5734696 5659597 5588672 5532390 5496886 5484270 5491987 
1183.617 5514806 5545445 5576556 5602433 5619518 5627775 5630863 5635529 
1187.474 5648788 5677053 5722442 5781669 5846849 5907774 5955068 5982110 
1191.332 5988963 5980094 5964507 5951709 5949727 5962929 5991550 6032402 
1195.189 6079442 6126015 6165133 6190676 6199448 6190104 6164225 6126922 
1199.047 6084448 6043154 6008280 5982580 5965817 5956815 5953691 5954934 
1202.904 5960543 5971494 5988560 6012211 6041071 6072688 6102492 6125276 
1206.761 6135592 6128737 6102560 6058676 6003442 5946737 5901392 5877613 
1210.619 5880635 5907505 5947947 5986007 6007440 6003611 5975492 5932831 
1214.476 5889166 5857596 5844465 5847991 5859477 5869821 5872810 5869519 
1218.334 5866966 5874993 5901258 5946267 6003073 6058912 6100678 6117782 
1222.191 6106794 6070369 6016141 5952515 5887017 5825424 5771697 5729459 
1226.048 5702802 5695718 5711161 5750141 5810514 5887151 5972939 6059886 
1229.906 6140331 6209228 6264253 6306309 6339861 6370995 6406470 6450758 
1233.763 6503728 6559699 6608174 6636502 6634080 6596669 6527542 6437744 
1237.621 6342652 6258640 6196792 6162881 6156798 6174745 6211480 6262472 
1241.478 6323488 6390464 6458964 6523472 6578335 6620050 6647874 6664024 
1245.336 6672738 6678256 6683337 6689125 6695013 6701138 6708339 6718198 
1249.193 6732230 6750470 6770831 6790351 6807112 6822123 6839593 6866993 
1253.050 6910654 6972806 7049648 7131624 7206608 7262501 7292926 7298216 
1256.908 7284435 7260883 7237434 7222576 7221465 7237905 7273619 7328476 
1260.765 7399180 7478289 7554985 7616722 7654221 7663360 7648589 7619960 
1264.623 7591467 7575249 7578350 7602358 7644644 7701200 7768929 7845878 
1268.480 7930164 8018348 8104085 8179035 8235593 8269971 8284695 8288072 
1272.338 8290605 8301751 8324852 8356771 8389030 8411934 8419164 8409704 
1276.195 8388929 8366803 8354542 8360926 8390584 8443588 8515590 8598180 
1280.052 8681700 8756715 8815276 8853893 8873811 8881826 8887541 8901103 
1283.910 8929074 8972132 9024937 9078492 9124509 9158077 9180581 9198111 
1287.767 9219501 9251452 9296878 9354292 9420519 9492987 9571598 9658794 
1291.625 9756784 9864964 9977782 10085305 10177048 10244757 10286860 
1295.000 10308507 10320485 10335211 10362051 10405353 10463493 10531755 
1298.375 10603866 10674901 10742892 10807258 10868236 10926641 10982063 
1301.750 11034365 11083037 11127464 11166322 11197464 11217830 11224902 
1305.126 11218375 11201068 11179036 11160372 11151126 11153811 11164485 
1308.501 11174991 11175093 11156326 11115601 11055642 10983524 10907375 
1311.876 10832905 10761810 10690929 10614697 10528089 10430163 10324963 
1315.251 10220060 10125324 10049122 9995684 9963882 9947134 9935404 9918285 
1319.109 9889403 9847542 9798162 9750785 9715375 9699993 9707617 9735842 
1322.966 9777692 9824800 9867777 9899878 9917912 9921200 9911674 9892827 
1326.824 9869506 9847170 9832460 9832188 9851576 9893301 9956050 10035931 
1330.681 10127223 10225522 10330324 10445062 10576161 10730257 10910875 
1334.056 11116451 11339843 11569475 11794735 12006656 12202868 12386351 
1337.432 12564214 12743277 12926918 13111663 13288697 13446219 13574740 
1340.807 13670027 13733597 13770773 13788216 13793586 13795125 13802034 
1344.182 13824848 13872501 13950608 14058640 14190389 14334814 14479562 
1347.557 14615208 14738179 14850419 14958367 15068742 15184602 15303479 
1350.932 15417787 15518287 15598202 15656594 15699672 15739970 15792986 
1354.308 15871679 15984558 16133158 16313629 16519712 16746970 16994710 
1357.683 17267240 17572618 17922334 18330498 18813258 19391340 20089136 
1361.058 20928746 21923086 23060356 24296822 25557098 26757990 27833146 
1364.433 28744938 29485138 30062058 30491358 30793516 30998902 31154190 
1367.809 31320394 31573526 31984992 32604710 33459340 34553132 35883048 
1371.184 37452904 39283112 41404616 43837208 46559336 49467552 52368352 
1374.559 55030192 57241608 58880092 59911788 60345644 60193184 59448500 
1377.934 58103140 56179080 53757228 50981140 48012508 45006844 42075680 
1381.310 39280720 36657656 34226660 32001290 29986144 28167008 26506874 
1384.685 24948998 23432358 21905904 20348026 18779316 17254692 15839513 
1388.060 14580016 13488429 12551459 11747584 11057783 10469636 9973510 
1391.435 9557677 9205118 8896267 8612071 8341875 8083662 7844327 7631560 
1395.293 7447480 7285951 7138967 7001965 6878674 6779110 6714395 6688418 
1399.150 6693499 6712713 6729875 6735562 6729606 6716415 6699993 6678829 
1403.008 6647100 6598284 6532083 6459401 6401056 6376409 6393658 6444234 
1406.865 6507933 6562054 6593473 6603566 6607266 6625467 6674623 6758345 
1410.723 6865815 6975937 7070258 7142268 7199129 7256975 7330869 7428638 
1414.580 7547635 7679076 7814436 7951221 8093924 8249978 8420987 8594869 
1418.437 8746776 8853555 8915037 8959819 9026594 9147486 9334353 9582809 
1422.295 9878251 10205203 10551581 10912370 11288422 11680763 12085246 
1425.670 12492528 12892751 13284119 13678644 14104469 14601466 15210063 
1429.045 15958261 16847848 17856594 18949294 20092606 21262004 22441050 
1432.421 23618476 24783178 25928712 27061264 28202646 29397734 30706558 
1435.796 32180022 33811524 35516088 37164340 38656880 39972224 41154252 
1439.171 42274164 43405356 44603932 45902016 47304364 48794436 50342172 
1442.546 51913592 53483040 55031960 56548532 58027352 59467952 60878692 
1445.922 62279264 63699528 65170220 66710696 68322504 69986976 71684400 
1449.297 73413664 75194288 77060960 79041856 81140488 83317144 85497104 
1452.672 87599304 89554440 91337160 92963512 94470216 95891384 97228552 
1456.047 98429296 99389744 100025616 100354248 100478968 100514048 100509288 
1459.422 100463392 100359760 100191632 99964592 99688144 99360424 98955136 
1462.798 98412544 97647960 96568952 95116280 93298056 91175064 88813448 
1466.173 86240504 83432120 80357520 77014192 73450904 69741104 65970072 
1469.548 62193264 58390876 54486280 50370228 45988644 41447408 37056976 
1472.923 33201098 30103568 27736818 25902332 24369152 22982094 21671336 
1476.299 20440192 19321912 18343390 17500926 16765360 16098358 15469974 
1479.674 14866362 14290262 13751450 13258292 12809783 12397669 12011221 
1483.049 11645672 11303283 10991510 10715585 10473811 10256258 10046952 
1486.424 9829883 9594970 9341191 9073418 8797931 8518259 8237045 7961548 
1490.282 7708991 7499628 7346943 7250203 7195390 7161771 7127818 7074940 
1494.139 6992301 6877664 6738994 6589806 6445377 6312797 6188222 6061197 
1497.997 5924064 5778446 5633145 5498866 5381972 5283120 5198407 5122863 
1501.854 5054474 4994641 4947418 4917424 4905964 4909314 4916452 4907371 
1505.712 4852752 4726217 4526958 4294828 4081183 3908565 3770473 3654109 
1509.569 3552710 3468033 3405948 3373022 3371786 3398901 3445422 3500432 
1513.426 3553612 3595505 3617690 3609938 3561462 3466564 3332018 3182293 
1517.284 3050571 2964858 2935101 2953616 2999955 3047968 3068390 3036924 
1521.141 2947811 2822763 2698919 2602008 2536447 2490457 2449536 2403355 
1524.999 2348850 2289023 2230603 2178584 2133963 2094608 2058718 2027558 
1528.856 2006853 2002592 2019702 2057819 2112520 2174055 2230802 2270370 
1532.714 2283294 2267906 2233267 2195035 2166096 2153542 2159969 2187575 
1536.571 2240794 2327130 2454401 2624709 2828033 3028949 3166172 3182326 
1540.428 3066154 2864453 2639277 2432276 2254483 2099935 1959255 1828302 
1544.286 1710662 1615402 1549989 1516472 1510387 1523754 1549258 1580782 
1548.143 1614936 1648993 1679594 1703909 1719577 1725897 1724500 1716949 
1552.001 1703643 1683319 1654514 1617896 1579818 1554246 1558136 1608285 
1555.858 1715851 1885104 2107360 2353448 2553811 2587475 2359877 1943112 
1559.715 1545567 1293755 1186326 1169315 1193735 1225832 1246035 1245503 
1563.573 1222542 1182771 1137322 1099884 1081548 1088823 1123469 1184332 
1567.430 1267834 1366441 1467664 1552350 1601334 1606722 1578421 1536822 
1571.288 1501909 1485218 1489341 1511817 1546731 1588265 1630568 1668517 
1575.145 1697190 1711394 1707967 1687477 1656144 1622419 1594151 1576326 
1579.003 1570773 1575861 1586768 1596612 1596146 1578222 1539548 1482259 
1582.860 1413576 1343906 1285746 1250355 1245669 1275111 1335763 1419260 
1586.717 1512648 1602598 1675469 1722471 1740568 1733549 1709830 1679860 
1590.575 1652386 1632463 1622187 1621954 1632563 1655778 1694429 1749750 
1594.432 1819618 1897184 1972934 2036447 2080891 2105728 2115251 2116316 
1598.290 2114984 2114718 2114851 2113220 2107126 2095640 2080258 2063878 
1602.147 2049163 2037612 2029389 2023996 2021233 2022232 2027858 2038377 
1606.005 2051926 2065243 2073999 2075664 2070437 2060915 2050495 2039642 
1609.862 2024995 1999263 1955160 1889430 1805410 1712658 1622053 1543771 
1613.719 1482226 1435716 1396490 1353744 1297410 1224503 1142970 1067597 
1617.577 1010503 973906 953052 941131 934058 930272 930472 934855 941064 
1621.916 942426 929741 895276 840429 776494 720268 683795 672312 682401 
1626.256 704371 725943 735966 729063 708054 681837 661793 656317 668330 
1630.596 696173 735369 781539 830038 876384 915629 939504 936714 894844 
1634.935 807464 684624 556378 457291 403163 388040 394872 407806 415965 
1639.275 414837 405517 392451 381639 377859 383928 399680 422963 450359 
1643.614 478288 502470 517298 516469 492817 442962 372884 300596 246653 
1647.954 222817 229281 258787 304409 361974 431486 515208 615469 727901 
1652.294 828644 869943 810585 672744 521776 404755 334020 301956 295689 
1656.633 301856 308720 306664 290914 262136 226198 191954 168386 161923 
1660.973 174154 200341 230508 254079 263561 259782 250366 246156 256135 
1665.312 286040 338165 412350 505057 608269 708386 785356 816328 786053 
1669.652 696074 567658 431055 312566 225171 169513 138290 120525 104252 
1673.992 79595 41817 -5897 -52613 -86537 -101610 -100417 -90181 -79448 
1678.331 -74280 -76864 -84847 -91672 -88823 -69178 -29190 28926 98651 168983 
1683.153 223612 245327 229049 191457 157448 140676 140908 151680 167060 
1687.493 183269 199711 217181 236409 256102 271983 278017 268866 242343 
1691.832 199545 144090 80490 12491 -57318 -125526 -187365 -233167 -252308 
1696.172 -238963 -197765 -140399 -78619 -22629 20145 44269 48278 38470 28529 
1700.994 30219 44203 64218 82312 93746 96364 91658 83870 79595 83903 97590 
1706.297 115421 129772 133385 123607 101667 72337 42479 18157 3843 331 5003 
1711.601 12094 15507 10304 -5864 -31741 -61591 -87730 -103067 -104757 -95912 
1716.423 -84847 -81170 -87398 -96078 -93162 -68383 -21238 40458 104981 
1720.763 159636 193247 198650 173623 123574 59744 -1855 -48141 -72226 -73518 
1725.585 -57218 -29521 3644 38503 72834 106041 137428 166629 194076 220165 
1730.406 246156 273475 301160 325531 338629 328250 282360 199579 98021 6925 
1735.228 -53673 -80176 -79415 -59637 -27268 13684 59744 105975 145615 171005 
1740.050 176971 163149 133981 96198 55900 16733 -21072 -60631 -106181 
1744.390 -160571 -222835 -287342 -346377 -390739 -414375 -415533 -398353 
1748.247 -370744 -340418 -312242 -286117 -258931 -227571 -192499 -157424 
1752.104 -126255 -101312 -81435 -64242 -47942 -33397 -25114 -30548 -56788 
1756.444 -105485 -169679 -233995 -283137 -307408 -305620 -284130 -254990 
1760.301 -232704 -229028 -250719 -294892 -350416 -403418 -444431 -470347 
1764.159 -483222 -488187 -490040 -492688 -497653 -503279 -504603 -494144 
1768.016 -462801 -404212 -316414 -204024 -77228 47351 145880 193214 171800 
1772.356 84500 -43966 -179185 -296713 -387660 -453699 -501293 -534983 
1776.213 -556494 -565197 -560167 -542496 -516749 -490835 -473293 -470910 
1780.071 -484877 -510030 -537730 -559339 -571451 -575785 -578433 -585547 
1783.928 -601628 -626179 -654004 -676236 -684506 -672729 -638950 -584885 
1787.786 -514366 -433375 -349357 -270057 -204753 -161697 -147686 -164545 
1791.643 -207502 -265090 -324062 -376438 -421062 -461411 -501690 -543356 
1795.500 -584256 -620554 -648842 -668428 -682389 -696647 -716230 -743322 
1799.358 -774182 -800575 -812779 -805238 -779771 -745439 -713716 -693603 
1803.215 -688112 -694596 -706009 -715734 -720134 -719968 -719803 -724930 
1807.073 -739022 -761613 -788536 -813209 -830240 -838574 -841881 -847470 
1810.930 -862185 -888904 -923920 -957709 -979000 -979033 -953775 -905437 
1814.787 -841153 -771800 -707861 -656551 -619892 -594183 -572675 -549147 
1818.645 -521018 -491199 -466376 -454328 -461047 -488253 -533792 -593257 
1822.502 -662837 -740576 -826900 -921969 -1023099 -1122521 -1208471 -1268934 
1826.360 -1298006 -1295726 -1268273 -1224133 -1170703 -1113432 -1053212 
1829.735 -987926 -915455 -837681 -760654 -692843 -642126 -613440 -608047 
1833.592 -623102 -652449 -688741 -724864 -754965 -774645 -779904 -766111 
1837.450 -729363 -668527 -588029 -497553 -412025 -345450 -308699 -306779 
1841.307 -338762 -398816 -478324 -568605 -662274 -752120 -830406 -888011 
1845.165 -914827 -904180 -854679 -772098 -668891 -562615 -471638 -411793 
1849.022 -391699 -410005 -457571 -522805 -596169 -673225 -753807 -839897 
1852.880 -931194 -1024355 -1112275 -1186696 -1241479 -1273493 -1283767 
1856.255 -1276334 -1257172 -1232096 -1205894 -1181739 -1161252 -1145323 
1859.630 -1134087 -1126949 -1123909 -1124107 -1126916 -1132071 -1139904 
1863.005 -1151173 -1166671 -1186332 -1209165 -1232591 -1253769 -1270189 
1866.380 -1280398 -1285188 -1286906 -1288657 -1291861 -1294339 -1289945 
1869.756 -1271379 -1232955 -1174205 -1100510 -1023826 -959825 -924482 
1873.131 -931161 -985381 -1083323 -1212469 -1356771 -1498846 -1625789 
1876.506 -1730353 -1808957 -1858251 -1872437 -1841952 -1757876 -1617041 
1879.881 -1428475 -1213328 -1002340 -826272 -705910 -647817 -643086 -675508 
1883.739 -725691 -781557 -841253 -909239 -989480 -1078167 -1159170 -1208372 
1887.596 -1200442 -1120901 -976752 -801269 -644045 -550868 -547823 -629752 
1891.454 -766376 -915025 -1038073 -1109929 -1121496 -1079357 -1001811 
1894.829 -912645 -833283 -779970 -760885 -777754 -828223 -907388 -1006670 
1898.686 -1114985 -1218549 -1304712 -1363807 -1390758 -1385474 -1350396 
1902.062 -1287930 -1200376 -1090231 -962140 -825809 -696250 -592132 -533759 
1905.919 -536969 -609238 -746232 -933640 -1147240 -1358654 -1541308 -1671539 
1909.776 -1734709 -1728175 -1661241 -1553788 -1432273 -1325391 -1257205 
1913.152 -1245543 -1298105 -1412226 -1575809 -1771274 -1981197 -2187557 
1916.527 -2373981 -2524618 -2625475 -2668452 -2656004 -2602420 -2527583 
1919.902 -2452239 -2391578 -2352001 -2331272 -2318451 -2298446 -2256091 
1923.277 -2184260 -2086005 -1974270 -1864816 -1771835 -1703686 -1660250 
1926.653 -1632853 -1608887 -1575611 -1523445 -1450899 -1363179 -1271147 
1930.028 -1185573 -1112044 -1048089 -985645 -912347 -820021 -709681 -595374 
1933.885 -501955 -457274 -485440 -598021 -790421 -1041214 -1319511 -1591820 
1937.743 -1828556 -2013717 -2144928 -2228632 -2272572 -2282460 -2257805 
1941.118 -2194546 -2092501 -1960252 -1817272 -1691705 -1608689 -1582378 
1944.493 -1610736 -1676028 -1747448 -1789423 -1772627 -1678833 -1506110 
1947.869 -1269760 -997282 -720266 -464456 -247242 -74180 56232 144753 187181 
1952.208 171403 80523 -98761 -369486 -720432 -1125825 -1549397 -1956557 
1956.066 -2319638 -2624717 -2872873 -3072855 -3235254 -3364847 -3458375 
1959.441 -3507844 -3505642 -3447758 -3334959 -3171315 -2958412 -2696838 
1962.816 -2394873 -2072814 -1768040 -1533350 -1422068 -1465528 -1660613 
1966.191 -1958372 -2279131 -2527945 -2636969 -2588883 -2421695 -2203678 
1969.567 -2001745 -1855512 -1765664 -1699660 -1613113 -1476293 -1289912 
1972.942 -1091156 -932748 -869626 -932119 -1118687 -1397959 -1721277 
1976.317 -2041980 -2326328 -2557559 -2731050 -2847001 -2907235 -2919413 
1979.692 -2902364 -2882748 -2894465 -2963710 -3099734 -3287938 -3494335 
1983.068 -3670212 -3768175 -3761408 -3645602 -3438521 -3172499 -2883834 
1986.443 -2604627 -2356351 -2144268 -1957646 -1774541 -1566598 -1310757 
1989.818 -1001546 -658470 -326777 -76035 25016 -66793 -350880 -777059 
1993.675 -1259551 -1694280 -1991454 -2095469 -1993499 -1715006 -1322715 
1997.051 -899386 -524460 -269395 -181635 -276680 -539120 -924746 -1369983 
2000.908 -1794571 -2122639 -2295710 -2288854 -2119012 -1844064 -1548076 
2004.283 -1310757 -1199748 -1247888 -1449677 -1765565 -2136850 -2501690 
2007.659 -2800815 -2993920 -3050317 -2954693 -2710898 -2344223 -1902327 
2011.034 -1445152 -1036784 -728867 -550140 -501326 -558843 -688178 -852199 
2014.891 -1028520 -1207645 -1392509 -1586604 -1789852 -1989179 -2165765 
2018.266 -2296633 -2362645 -2349925 -2252432 -2071726 -1819285 -1522223 
2021.642 -1218912 -956817 -782351 -727213 -800740 -984224 -1239100 -1512252 
2025.499 -1753553 -1930169 -2028426 -2050027 -2006659 -1912025 -1779358 
2028.874 -1624204 -1469788 -1343063 -1271379 -1274253 -1349240 -1468863 
2032.250 -1585515 -1643845 -1600337 -1443699 -1199649 -925937 -691552 
2035.625 -560895 -573502 -733663 -1008653 -1341214 -1666852 -1921856 
2039.000 -2060184 -2059887 -1924957 -1686623 -1398487 -1124008 -916844 
2042.375 -816648 -836028 -962768 -1165151 -1401592 -1633381 -1830404 
2045.751 -1976513 -2067406 -2106977 -2104174 -2072155 -2028294 -1991026 
2049.126 -1976744 -1993598 -2036473 -2086302 -2113967 -2089335 -1990630 
2052.501 -1813808 -1576997 -1319841 -1090132 -935756 -890193 -960751 
2055.876 -1128568 -1352180 -1581124 -1761803 -1854325 -1837828 -1714610 
2059.251 -1511030 -1271114 -1049642 -893533 -833812 -878289 -1011331 
2062.627 -1197898 -1395944 -1571022 -1702069 -1787938 -1843008 -1888504 
2066.002 -1940098 -2003592 -2072650 -2133157 -2171468 -2179183 -2155610 
2069.377 -2106911 -2041783 -1967080 -1888735 -1811399 -1740748 -1687217 
2072.752 -1662990 -1679493 -1742101 -1844031 -1967673 -2085345 -2171106 
2076.128 -2205359 -2183469 -2115484 -2025194 -1939636 -1882994 -1869534 
2079.503 -1901139 -1968564 -2058239 -2156170 -2253355 -2346267 -2436226 
2082.878 -2525639 -2615924 -2704675 -2787547 -2859706 -2917932 -2961835 
2086.253 -2993887 -3015308 -3023403 -3009649 -2959597 -2856974 -2691964 
2089.629 -2465352 -2193886 -1906912 -1642723 -1434717 -1305736 -1261467 
2093.004 -1290374 -1368233 -1464174 -1553590 -1621167 -1666753 -1701871 
2096.379 -1746590 -1819681 -1933137 -2088313 -2272934 -2464989 -2635882 
2099.754 -2759267 -2815432 -2797523 -2713302 -2584041 -2437807 -2300785 
2103.130 -2192337 -2118880 -2075024 -2048939 -2028030 -2004581 -1977008 
2106.505 -1947783 -1919250 -1889857 -1851949 -1795197 -1712564 -1605157 
2109.880 -1485638 -1375995 -1300285 -1280298 -1326910 -1439142 -1605685 
2113.255 -1811762 -2040859 -2279230 -2515131 -2734606 -2920598 -3055055 
2116.631 -3121380 -3112991 -3037749 -2918459 -2785704 -2672009 -2598929 
2120.006 -2571229 -2575609 -2585590 -2573699 -2518853 -2414973 -2271352 
2123.381 -2110538 -1958504 -1839379 -1770317 -1758140 -1800807 -1890318 
2126.756 -2016388 -2166721 -2330876 -2500471 -2669111 -2832089 -2985133 
2130.132 -3120591 -3226999 -3285932 -3277973 -3188484 -3014584 -2774740 
2133.507 -2503667 -2251674 -2068857 -1990201 -2026283 -2160127 -2353649 
2136.882 -2560853 -2746920 -2893280 -2999843 -3076803 -3133552 -3171907 
2140.257 -3184833 -3160986 -3097003 -3001685 -2899665 -2820995 -2790774 
2143.633 -2816353 -2882714 -2959465 -3011557 -3017414 -2976742 -2908947 
2147.008 -2841800 -2798411 -2782971 -2779119 -2759168 -2700131 -2597677 
2150.383 -2472501 -2359646 -2296534 -2300489 -2362250 -2446143 -2508806 
2153.758 -2520434 -2481001 -2427791 -2416489 -2507620 -2727724 -3057490 
2157.134 -3426160 -3735851 -3889924 -3833209 -3573574 -3180853 -2755974 
2160.509 -2388612 -2144103 -2047818 -2091611 -2246466 -2474412 -2736153 
2163.884 -2996091 -3230123 -3421229 -3562105 -3655459 -3710293 -3735392 
2167.259 -3737231 -3711509 -3644617 -3519643 -3319998 -3043803 -2707902 
2170.635 -2349463 -2015201 -1757513 -1619154 -1624006 -1777972 -2063845 
2174.010 -2449339 -2888113 -3332164 -3734866 -4055137 -4261433 -4332888 
2177.385 -4261892 -4054940 -3736508 -3346303 -2933302 -2555187 -2264760 
2180.760 -2099195 -2072089 -2165237 -2329887 -2498923 -2609337 -2618032 
2184.135 -2519150 -2344783 -2160226 -2041585 -2047257 -2206744 -2506796 
2187.511 -2900028 -3317368 -3694163 -3981863 -4157772 -4228260 -4215857 
2190.886 -4149272 -4052741 -3942463 -3826443 -3707731 -3586094 -3459625 
2194.261 -3325785 -3181182 -3025805 -2867639 -2724629 -2622082 -2586380 
2197.636 -2633609 -2759267 -2933730 -3107333 -3227098 -3248376 -3154868 
2201.012 -2962888 -2717154 -2470854 -2270297 -2138960 -2072287 -2044355 
2204.387 -2021830 -1981790 -1920470 -1855677 -1818097 -1839742 -1937327 
2207.762 -2104899 -2312486 -2517305 -2673589 -2747677 -2728218 -2626298 
2211.137 -2471447 -2300126 -2147763 -2039111 -1982945 -1975721 -2007517 
2214.513 -2065428 -2140312 -2226391 -2319143 -2412799 -2500273 -2572777 
2217.888 -2626397 -2665258 -2702699 -2757851 -2846408 -2971510 -3117466 
2221.263 -3249231 -3319932 -3290404 -3139671 -2878073 -2544844 -2203809 
2224.638 -1922186 -1750847 -1717812 -1819813 -2027767 -2294523 -2569450 
2228.014 -2805917 -2968120 -3038407 -3015736 -2916484 -2769901 -2615858 
2231.389 -2492136 -2425979 -2427626 -2486667 -2576268 -2663710 -2722456 
2234.764 -2739907 -2721171 -2683007 -2646157 -2624388 -2618690 -2619514 
2238.139 -2611379 -2581538 -2523630 -2440806 -2340565 -2230973 -2117825 
2241.515 -2003592 -1891341 -1786123 -1696194 -1630245 -1591754 -1574719 
2244.890 -1563956 -1540383 -1487454 -1401360 -1294999 -1195849 -1134814 
2248.265 -1137656 -1212866 -1347655 -1510007 -1658039 -1753751 -1770152 
2251.640 -1701343 -1561678 -1383823 -1207876 -1075457 -1019860 -1057080 
2255.016 -1183325 -1373980 -1591589 -1791799 -1936865 -2005505 -1996501 
2258.391 -1927431 -1826907 -1725402 -1642459 -1584788 -1545798 -1513507 
2261.766 -1476194 -1430622 -1381048 -1337679 -1310889 -1303985 -1313334 
2265.141 -1328826 -1337844 -1330049 -1301309 -1252877 -1190826 -1122554 
2268.517 -1055427 -995001 -945245 -907586 -880869 -861623 -843568 -821047 
2272.374 -791017 -755924 -723938 -708126 -720895 -768790 -849685 -951262 
2276.231 -1056815 -1148595 -1215146 -1254265 -1271511 -1276169 -1275971 
2279.607 -1273724 -1266885 -1250135 -1219903 -1177245 -1128601 -1082133 
2282.982 -1044519 -1017579 -997546 -976884 -948419 -908280 -858416 -805701 
2286.839 -757545 -720696 -698003 -687285 -684341 -684241 -683050 -679478 
2290.697 -674945 -671802 -674019 -686061 -711996 -755825 -818831 -898195 
2294.554 -985612 -1068813 -1131708 -1159599 -1144167 -1084711 -990405 
2297.929 -877000 -764325 -669057 -602985 -570458 -568539 -589551 -622308 
2301.787 -656319 -682290 -692975 -685068 -658569 -617146 -567877 -518701 
2305.644 -476934 -446615 -427980 -417553 -410005 -401498 -391203 -382430 
2309.502 -379583 -386667 -402458 -419837 -426854 -409376 -357865 -269759 
2313.359 -152952 -22895 100341 197258 256400 273342 253383 207800 151714 
2317.699 98518 58750 38337 37111 51327 74359 98750 118536 129672 131528 
2322.521 125761 115586 103390 90730 77341 62097 44799 27369 14811 14115 
2327.342 31776 71575 131595 203490 273077 326095 351561 347085 318667 280934 
2332.164 249836 237868 250068 283023 326260 365987 390461 392252 369999 
2336.504 327388 272911 215590 165701 131926 121188 138224 182938 249471 
2340.843 327686 402002 457457 484192 479250 448170 402831 356768 318999 
2345.183 292738 274436 258356 241117 223778 211943 213369 234619 277553 
2349.522 338629 409033 475335 523037 542842 533354 503133 467375 442465 
2353.862 438186 456064 488537 525724 560193 591348 624793 668695 728333 
2358.202 802418 882260 955874 1014920 1057699 1091978 1130014 1183734 
2362.059 1256834 1340748 1414772 1453468 1432358 1336993 1169315 946908 
2365.917 699923 462963 270292 145648 100407 131794 225635 360051 509701 
2370.256 652302 769258 849459 888170 887407 853609 794452 717646 628974 
2374.596 531430 425782 312367 192253 69454 -49532 -156331 -242572 -303799 
2378.935 -339391 -355382 -360746 -366970 -381999 -409376 -445887 -483752 
2382.793 -512281 -522673 -511089 -480178 -438539 -397956 -370545 -364520 
2386.650 -382231 -420499 -472102 -528431 -582205 -629024 -667667 -698466 
2390.508 -721556 -735416 -736408 -720432 -684308 -628991 -560531 -490570 
2394.365 -433110 -401399 -403881 -441088 -503908 -576414 -640207 -678254 
2398.222 -680437 -646626 -586705 -516682 -455056 -418281 -415567 -448105 
2402.080 -509071 -587069 -668593 -742230 -801170 -843799 -872866 -893302 
2405.937 -910330 -926598 -940914 -948452 -942732 -917505 -869791 -801369 
2409.795 -720068 -637726 -567116 -520091 -502948 -515326 -550338 -596003 
2413.652 -638652 -664723 -665682 -637924 -584885 -515028 -441717 -380146 
2417.510 -343265 -341047 -376305 -444960 -536075 -635079 -726948 -798723 
2421.367 -843072 -858349 -847668 -817442 -775207 -728337 -682852 -644177 
2425.224 -616881 -603283 -603382 -614268 -629620 -641597 -643681 -632862 
2429.082 -611191 -585084 -563310 -552887 -555765 -568803 -584488 -594349 
2432.939 -592628 -578433 -555567 -530814 -509236 -493052 -480343 -467203 
2436.797 -450687 -431919 -415931 -411230 -424670 -458862 -509666 -567347 
2440.654 -619462 -655625 -671736 -671108 -663432 -660323 -672034 -703627 
2444.511 -752980 -812514 -872370 -922696 -956585 -970735 -964850 -940650 
2448.369 -900312 -846775 -783112 -714477 -647751 -591602 -555104 -544713 
2452.226 -561722 -600602 -649107 -690759 -709416 -693703 -641332 -560729 
2456.084 -468395 -384383 -328532 -312440 -338564 -399743 -483090 -572940 
2459.941 -655492 -721986 -767633 -791711 -795217 -780367 -750499 -709879 
2463.799 -665417 -624789 -595738 -583859 -589782 -609338 -634153 -654434 
2467.656 -662010 -653077 -628693 -594977 -560696 -533693 -520190 -522375 
2471.513 -538491 -563310 -590477 -612713 -624061 -621944 -606492 -581576 
2475.371 -553251 -528265 -511685 -506125 -510957 -522904 -538458 -554905 
2479.228 -571451 -588657 -607055 -625683 -640869 -647453 -640737 -619164 
2483.086 -585348 -546897 -513373 -493482 -490669 -502518 -520919 -534322 
2486.943 -531641 -506588 -458465 -392361 -317573 -245188 -185146 -145367 
2490.801 -130561 -141989 -177429 -231214 -294494 -356342 -405073 -431720 
2494.658 -430628 -401862 -349953 -282938 -209224 -135099 -63943 3346 67167 
2498.998 127054 180054 220828 243039 241315 214164 164077 97458 23625 -49168 
2503.819 -114595 -169878 -214854 -250818 -278137 -295256 -298501 -283601 
2507.677 -247705 -191472 -119531 -40123 36780 103158 153968 188507 208496 
2512.016 217148 215358 201402 170607 117641 39265 -63678 -184981 -314924 
2516.356 -440624 -550769 -636369 -692413 -717322 -712459 -681661 -630182 
2520.213 -565561 -497454 -435295 -388058 -361077 -353926 -360944 -372664 
2524.071 -377464 -366341 -335352 -286150 -225551 -161697 -103432 -56522 
2527.928 -24021 -6328 -2551 -11431 -31310 -59736 -93494 -127481 -156430 
2532.268 -175773 -183490 -180907 -172428 -164048 -160968 -166036 -178158 
2536.125 -193260 -205084 -208495 -200613 -182397 -157888 -132714 -112806 
2539.983 -100583 -95813 -95415 -94686 -89353 -78388 -63778 -50526 -43966 
2544.322 -47511 -60896 -78884 -92931 -93394 -73087 -29256 34759 111477 
2548.662 189568 258389 309648 338264 343603 328548 298905 261771 225668 
2553.001 198418 184695 186021 199446 217977 232928 238166 231469 216817 
2557.341 202628 198949 212772 244995 288693 332196 363798 375537 367446 
2561.681 346919 326791 318369 328814 357298 396198 433974 459480 466545 
2566.020 454704 429662 399714 374145 359586 360051 376300 407673 452183 
2570.360 507744 572403 643840 719106 794983 866723 929177 976729 1003695 
2574.699 1006120 982241 934622 868914 794950 723985 665675 627083 610028 
2579.039 611753 625490 643873 660532 672246 679680 686350 698264 720898 
2583.379 758470 812410 880501 956206 1030264 1092211 1131874 1143302 1125994 
2587.718 1085933 1034482 986094 954646 948834 971382 1017511 1077761 1140046 
2592.058 1193901 1232710 1255040 1264079 1266039 1268299 1276673 1295051 
2595.915 1323632 1360026 1399448 1435981 1464406 1480697 1483323 1473848 
2599.773 1456227 1436048 1419460 1411847 1416568 1433821 1461713 1495891 
2603.630 1531202 1562526 1586303 1601500 1609216 1612608 1615369 1620424 
2607.488 1628506 1638650 1648062 1653883 1654814 1651155 1645368 1640878 
2611.345 1640412 1644769 1652985 1663029 1672642 1681090 1688209 1695061 
2615.202 1701048 1704608 1702512 1691968 1672010 1645568 1618462 1598574 
2619.060 1591623 1599472 1617630 1638284 1651488 1650124 1632896 1604095 
2622.917 1572602 1547928 1537819 1545367 1569243 1605325 1648494 1694030 
2626.775 1737740 1775833 1804213 1818287 1815059 1794497 1760795 1721174 
2630.632 1685814 1662730 1656444 1666355 1687244 1711959 1733981 1750049 
2634.490 1760462 1768047 1776199 1787544 1802749 1821514 1843076 1867501 
2638.347 1895687 1928834 1966743 2008051 2049263 2086750 2116549 2136594 
2642.204 2146616 2147582 2141588 2130833 2117681 2104629 2094275 2089381 
2646.062 2091778 2101899 2117714 2135761 2151711 2162167 2165996 2164731 
2649.919 2162000 2161767 2167795 2181481 2203027 2231202 2264342 2300615 
2653.777 2337924 2373670 2404521 2426911 2438707 2439806 2432809 2423013 
2657.634 2416249 2416782 2425745 2441306 2459199 2475528 2487924 2497422 
2661.491 2507086 2520717 2540480 2565910 2593675 2619609 2639577 2652344 
2665.349 2658912 2662612 2666746 2673981 2685583 2701253 2720424 2742631 
2669.206 2767439 2794450 2822196 2848477 2869790 2884032 2889735 2887734 
2673.064 2880663 2872124 2865220 2861518 2861518 2864620 2870023 2877194 
2676.921 2885766 2894906 2902878 2907314 2905646 2896273 2879929 2859317 
2680.779 2838371 2820395 2806689 2796017 2785280 2771074 2751900 2729026 
2684.636 2706087 2687983 2678281 2678381 2686783 2700119 2715056 2728660 
2688.493 2739529 2746432 2748032 2741797 2724825 2695685 2655478 2609142 
2692.351 2564744 2531181 2514484 2516517 2533381 2557511 2579542 2592842 
2696.208 2594242 2585442 2570610 2553945 2538313 2523483 2508119 2490790 
2700.066 2471662 2454168 2442739 2442372 2455867 2482759 2519284 2559844 
2703.923 2598608 2631709 2657478 2677115 2692784 2706887 2720924 2735162 
2707.781 2749099 2762270 2774875 2787880 2802754 2821229 2843841 2870557 
2711.638 2899942 2930331 2959821 2987711 3013668 3038292 3062216 3085542 
2715.495 3107366 3126489 3141674 3153422 3163501 3175918 3195611 3226854 
2719.353 3272088 3330449 3398434 3469603 3537677 3597677 3646591 3684283 
2723.210 3711752 3730734 3742465 3747311 3745573 3738020 3726791 3715094 
2727.068 3706205 3703030 3706205 3713791 3722413 3727860 3726758 3717300 
2730.925 3699321 3673891 3642181 3604559 3560961 3510687 3453605 3390753 
2734.782 3324205 3256765 3191105 3129059 3071526 3018072 2968528 2922792 
2738.640 2881297 2844808 2813892 2788314 2767239 2748832 2731794 2715456 
2742.497 2700519 2688650 2681649 2680882 2686049 2695485 2706354 2715589 
2746.355 2720891 2721424 2718457 2714523 2712955 2716790 2727793 2746165 
2750.212 2770340 2797051 2822997 2844608 2859383 2866488 2866421 2861551 
2754.070 2854480 2848544 2845776 2847076 2851979 2858750 2864920 2868589 
2757.927 2868756 2866121 2862819 2861518 2865053 2875026 2891370 2912351 
2761.784 2935101 2956551 2974333 2987878 2997954 3006962 3017405 3032119 
2765.642 3052473 3079168 3111504 3148115 3186999 3225920 3262707 3295525 
2769.499 3323170 3346008 3365642 3385377 3408820 3439411 3478822 3526787 
2773.357 3580405 3635866 3689530 3739190 3784945 3829034 3874965 3925583 
2777.214 3982158 4043590 4107206 4168722 4224895 4273612 4315140 4351083 
2781.072 4384686 4419931 4460135 4508477 4567371 4637929 4720422 4813886 
2784.929 4916586 5026249 5140097 5255954 5371304 5484203 5592264 5692697 
2788.786 5782979 5861089 5926785 5981942 6030723 6078669 6131392 6192759 
2792.644 6264691 6346283 6435289 6529560 6627957 6730885 6839761 6955567 
2796.501 7077364 7202430 7325544 7441716 7547231 7641676 7727946 7812074 
2800.359 7901313 8001776 8117791 8250755 8399299 8561006 8732441 8911587 
2804.216 9096324 9285504 9477781 9671940 9866049 10058516 10247675 10432980 
2808.073 10614866 10795131 10976082 11161324 11353992 11556817 11771448 
2811.449 11998209 12235619 12481343 12732632 12986454 13241076 13495641 
2814.824 13750663 14007683 14268656 14535576 14810888 15096872 15396296 
2818.199 15711833 16046612 16403463 16784336 17189810 17619024 18069526 
2821.574 18537958 19020914 19516086 20023102 20544328 21084544 21651030 
2824.950 22252120 22896130 23590244 24339680 25147390 26014750 26942580 
2828.325 27931682 28984176 30103532 31294826 32563530 33915760 35357400 
2831.700 36894368 38533496 40283200 42153404 44157308 46309636 48624932 
2835.075 51117836 53799304 56676344 59749900 63015608 66463692 70079640 
2838.451 73847360 77749424 81768208 85889056 90098296 94385016 98742288 
2841.826 103165448 107653016 112205880 116824544 121507840 126249816 
2844.719 131037104 135849936 140661264 145436512 150139120 154725904 
2847.612 159148864 163357424 167292432 170891936 174093328 176833792 
2850.505 179058000 180720112 181784608 182231248 182054864 181268560 
2853.398 179902784 178008400 175651248 172904128 169846176 166551440 
2856.291 163084480 159504816 155861264 152198416 148559824 144984080 
2859.184 141509632 138172544 135002480 132026864 129268464 126744536 
2862.077 124468264 122446400 120677336 119151320 117851024 116753128 
2864.970 115831072 115061296 114421592 113892936 113458376 113097536 
2867.864 112784544 112487928 112166928 111779088 111283008 110640632 
2870.757 109826024 108824648 107635440 106269920 104752144 103115616 
2873.650 101398144 99642920 97892424 96185144 94557416 93039160 91654944 
2877.025 90425824 89366992 88490088 87802784 87307968 87005048 86889768 
2880.400 86956344 87197064 87604376 88171568 88891992 89759688 90768272 
2883.775 91910192 93177680 94561376 96051280 97637584 99309992 101057968 
2887.151 102872472 104744008 106664520 108626872 110624344 112650536 
2890.044 114699384 116763880 118838024 120916176 122993712 125068072 
2892.937 127136080 129194184 131237480 133259072 135252496 137213552 
2895.830 139143040 141046960 142936288 144823936 146720432 148632144 
2898.723 150559664 152499728 154447168 156398880 158355776 160322144 
2901.616 162304688 164310400 166345008 168413392 170520144 172671280 
2904.509 174873472 177134608 179461040 181856176 184319872 186849728 
2907.402 189443408 192100512 194824192 197620128 200495648 203456400 
2910.295 206505680 209643808 212868592 216176432 219562432 223019728 
2913.188 226537872 230101776 233692176 237284512 240852272 244365776 
2916.081 247790816 251089728 254215008 257111008 259719584 261978560 
2918.974 263830864 265230320 266139440 266532416 266392624 265711664 
2921.867 264490544 262740816 260487264 257763360 254612240 251080656 
2924.760 247212912 243053616 238645600 234030960 229255472 224365104 
2927.654 219403312 214410960 209418848 204450176 199521312 194643584 
2930.547 189826784 185080656 180414304 175836576 171354896 166975328 
2933.440 162703776 158546128 154509696 150602688 146833040 143207968 
2936.333 139733984 136415552 133257496 130264984 127443552 124799336 
2939.226 122338400 120064784 117981912 116092408 114398824 112905064 
2942.119 111615856 110536936 109673080 109026432 108594496 108369352 
2945.012 108337968 108481976 108779144 109206752 109739672 110355376 
2947.905 111032840 111752512 112497720 113251120 113993864 114704520 
2950.798 115355792 115915648 116351560 116630240 116725256 116619456 
2953.691 116305992 115787936 115074856 114179792 113115800 111894992 
2956.584 110529072 109028864 107405952 105671456 103834432 101902536 
2959.477 99880344 97771352 95580392 93313664 90980384 88590928 86154472 
2962.853 83678568 81167728 78625968 76057512 73470440 70875408 68286080 
2966.228 65716856 63179864 60685464 58241756 55855876 53535772 51289552 
2969.603 49125484 47049060 45061792 43160056 41336940 39584556 37896772 
2972.978 36272288 34713968 33228602 31821992 30497364 29252074 28078772 
2976.354 26966308 25903212 24880746 23894952 22946254 22037896 21174500 
2979.729 20358582 19590572 18867550 18185498 17539184 16924218 16337918 
2983.104 15778761 15246472 14740990 14262972 13812295 13388364 12989835 
2986.479 12614081 12257602 11915889 11584925 11261660 10945159 10636801 
2989.854 10340063 10059227 9797145 9555170 9331848 9123324 8924846 8732542 
2993.712 8544683 8362176 8188084 8026077 7878910 7746835 7627075 7514090 
2997.569 7401910 7284536 7158941 7025267 6886854 6749528 6619815 6502887 
3001.427 6400619 6311687 6231446 6153505 6071579 5981573 5882248 5776028 
3005.284 5666512 5558231 5453937 5354498 5258838 5165144 5072576 4982072 
3009.142 4896346 4818945 4752479 4697310 4650756 4608124 4563789 4514905 
3012.999 4460972 4405304 4352824 4308080 4272709 4244569 4217835 4185717 
3016.856 4141960 4084294 4014195 3937151 3859955 3788020 3723716 3665905 
3020.714 3610473 3552443 3488374 3417169 3341400 3265578 3194676 3132796 
3024.571 3081370 3039660 3004760 2973098 2941206 2906513 2867522 2823397 
3028.429 2774408 2721224 2665413 2609609 2557444 2512851 2478593 2455734 
3032.286 2442239 2433209 2421680 2401256 2367140 2318602 2259479 2197432 
3036.144 2141322 2099269 2076329 2072467 2083221 2100068 2114085 2117215 
3040.001 2105029 2077761 2039975 1999130 1963015 1937720 1925639 1924507 
3043.858 1927603 1926870 1914324 1885271 1840181 1785082 1729723 1684783 
3047.716 1658572 1654215 1668351 1691668 1711992 1718845 1705306 1670713 
3051.573 1620058 1562293 1506264 1458987 1423416 1398451 1379903 1363583 
3055.431 1345767 1325427 1302960 1280761 1260955 1245536 1235103 1229454 
3059.288 1227892 1229387 1232610 1236997 1241516 1245703 1250255 1255771 
3063.146 1263414 1273915 1286244 1297510 1303126 1296978 1273915 1231647 
3067.003 1171973 1101047 1028272 964973 919713 898098 900223 920942 951657 
3071.343 982441 1004227 1010968 999843 972013 931036 881098 826652 771116 
3075.682 716650 664912 617162 575090 540785 516070 502304 499285 504725 
3080.022 514345 522838 524563 515241 492617 457789 414207 367413 323939 
3084.361 289787 269297 264788 275165 297280 325067 350832 367711 368971 
3088.701 350898 313594 260776 199214 137627 85063 48212 30351 30318 43573 
3093.523 62130 77739 84102 77573 59313 34228 9874 -6792 -10337 298 22498 
3098.827 49869 75485 93182 99844 95204 82147 64483 45130 25845 6527 -13352 
3104.131 -33795 -53640 -70105 -80276 -82363 -76831 -66196 -54502 -45258 
3108.470 -40951 -41581 -45556 -50990 -56489 -62188 -69410 -78487 -88922 
3112.810 -98628 -104359 -103332 -95713 -84185 -73982 -70470 -76831 -93328 
3117.149 -116019 -139770 -159941 -175309 -188094 -202832 -223431 -250719 
3121.007 -280654 -305918 -317871 -310586 -283965 -244394 -202269 -170209 
3124.864 -157656 -168188 -198758 -241612 -285852 -320983 -339888 -339093 
3128.722 -319791 -285852 -242539 -196076 -151661 -113899 -85311 -67389 
3132.579 -59537 -60200 -67389 -79150 -93891 -111382 -131323 -153052 -175508 
3136.919 -196539 -213761 -225153 -230054 -229756 -226842 -225551 -229127 
3140.776 -239857 -257805 -280091 -301713 -316612 -319162 -305620 -275554 
3144.634 -232406 -182662 -134635 -96442 -73418 -67190 -75108 -92036 -111448 
3148.973 -128938 -142386 -153284 -164810 -180145 -200977 -225981 -251182 
3152.831 -271415 -282276 -281183 -268037 -245520 -217636 -188889 -163220 
3156.688 -143645 -132250 -130097 -136656 -150568 -169580 -189551 -206839 
3160.545 -218430 -222835 -219888 -211343 -199388 -186239 -173388 -162061 
3164.403 -153317 -148315 -148680 -155635 -170209 -191836 -218265 -245950 
3168.260 -271415 -291581 -304262 -308765 -305984 -296978 -283468 -267773 
3172.118 -252374 -240354 -234558 -237141 -248599 -267408 -290720 -314659 
3175.975 -336345 -354389 -369121 -381900 -394049 -405536 -415269 -420797 
3179.833 -420068 -412587 -399810 -384813 -371340 -362302 -358627 -359620 
3183.690 -362931 -365579 -365612 -360845 -350052 -331975 -306116 -272177 
3187.547 -232505 -191571 -155635 -132250 -127812 -144639 -180940 -230882 
3191.405 -286150 -338034 -380973 -412951 -434832 -449727 -460947 -470347 
3195.262 -478821 -485672 -491000 -495071 -500036 -507846 -520654 -539021 
3199.120 -561887 -587367 -612282 -634450 -651787 -663432 -669321 -670181 
3202.977 -667667 -663300 -659330 -657941 -660223 -666410 -675706 -686226 
3206.834 -695886 -703528 -709482 -715304 -723839 -737963 -759695 -789363 
3210.692 -824916 -863409 -900047 -929607 -947725 -950800 -937079 -907454 
3214.549 -865327 -816549 -768228 -727874 -701576 -692016 -699029 -719671 
3218.407 -748085 -777655 -802658 -819459 -826305 -824651 -817574 -809174 
3222.264 -803419 -804047 -812514 -828554 -849785 -872370 -892144 -906164 
3226.122 -913075 -914629 -914364 -916381 -924184 -939096 -959098 -979860 
3229.979 -996125 -1003364 -999298 -984984 -963958 -941807 -923853 -914199 
3233.836 -914463 -924118 -940451 -959362 -976818 -989050 -993910 -991034 
3237.694 -981942 -969578 -958007 -951659 -953147 -964321 -984455 -1011166 
3241.551 -1040982 -1069904 -1094990 -1113729 -1125197 -1129857 -1128668 
3244.927 -1123644 -1117001 -1110689 -1106393 -1105335 -1107681 -1113168 
3248.302 -1120538 -1128040 -1134286 -1137656 -1137293 -1133063 -1125561 
3251.677 -1115812 -1105269 -1095552 -1087554 -1081605 -1077242 -1073110 
3255.052 -1067425 -1058897 -1046800 -1031892 -1015827 -1000984 -989844 
3258.427 -984521 -986075 -994901 -1011430 -1035594 -1067260 -1105996 
3261.803 -1149785 -1194891 -1236159 -1267249 -1283173 -1281488 -1263218 
3265.178 -1233681 -1200938 -1174371 -1160789 -1164292 -1184779 -1218152 
3268.553 -1257271 -1294801 -1323805 -1339199 -1338307 -1321130 -1289416 
3271.928 -1247096 -1199285 -1151338 -1108475 -1074796 -1052849 -1042866 
3275.304 -1043825 -1053311 -1068384 -1086000 -1102856 -1116076 -1122884 
3278.679 -1121033 -1110391 -1092710 -1071590 -1053014 -1042833 -1045378 
3282.054 -1062005 -1090694 -1125660 -1160161 -1188051 -1205696 -1212932 
3285.429 -1212040 -1206522 -1198988 -1190099 -1178171 -1160260 -1134550 
3288.805 -1101303 -1063128 -1026008 -995794 -977380 -972950 -980918 -997381 
3292.662 -1018075 -1039263 -1059823 -1081010 -1104872 -1132600 -1162838 
3296.037 -1191553 -1211941 -1216798 -1202226 -1167762 -1118555 -1063194 
3299.413 -1012719 -976157 -959263 -962933 -983529 -1014901 -1050006 -1083588 
3303.270 -1112705 -1137062 -1157484 -1175197 -1190826 -1203680 -1212370 
3306.645 -1215872 -1213791 -1207083 -1197798 -1188348 -1180748 -1176056 
3310.021 -1173181 -1169711 -1163367 -1151701 -1133294 -1109301 -1082332 
3313.396 -1056055 -1034404 -1020587 -1015761 -1019165 -1028124 -1039561 
3316.771 -1050171 -1057972 -1061773 -1061575 -1058269 -1052485 -1044585 
3320.146 -1035297 -1026008 -1019066 -1017612 -1025744 -1045973 -1079126 
3323.521 -1123512 -1174767 -1227272 -1275079 -1313697 -1340850 -1356309 
3326.897 -1360867 -1355450 -1341114 -1318024 -1286741 -1248946 -1207249 
3330.272 -1165481 -1128502 -1099683 -1081406 -1074135 -1076713 -1086728 
3333.647 -1102327 -1121430 -1142878 -1165316 -1186795 -1204803 -1216599 
3337.022 -1219738 -1213229 -1198625 -1179426 -1160525 -1147042 -1142746 
3340.398 -1148793 -1163301 -1181673 -1198360 -1207513 -1205762 -1191818 
3343.773 -1168125 -1138846 -1108309 -1080547 -1057707 -1039990 -1026140 
3347.148 -1015959 -1009513 -1009348 -1018571 -1040156 -1074498 -1119249 
3350.523 -1168125 -1213130 -1246831 -1264342 -1265134 -1253406 -1236688 
3353.899 -1222580 -1217459 -1224133 -1241115 -1263615 -1286707 -1305802 
3357.274 -1319577 -1330148 -1341412 -1358423 -1384979 -1421705 -1465561 
3360.649 -1510337 -1547515 -1567885 -1565244 -1536883 -1485275 -1416916 
3364.024 -1342039 -1271379 -1213923 -1175329 -1156757 -1155039 -1164193 
3367.400 -1177576 -1189174 -1195618 -1195750 -1190926 -1184119 -1178732 
3370.775 -1178138 -1184515 -1198525 -1219177 -1244254 -1270222 -1293546 
3374.150 -1311616 -1322947 -1327901 -1327472 -1323409 -1316274 -1306430 
3377.525 -1292687 -1273724 -1249772 -1222183 -1193767 -1169083 -1152263 
3380.901 -1145489 -1149520 -1162375 -1180517 -1199451 -1215575 -1225983 
3384.276 -1229816 -1227800 -1221655 -1214419 -1209363 -1208802 -1213956 
3387.651 -1224067 -1236060 -1245444 -1248285 -1241644 -1225487 -1203019 
3391.026 -1180153 -1162639 -1155138 -1158608 -1170339 -1185473 -1198691 
3394.402 -1207183 -1211577 -1215443 -1223670 -1240455 -1267910 -1304084 
3397.777 -1344649 -1384516 -1419228 -1446176 -1465627 -1478637 -1486463 
3401.152 -1489138 -1485011 -1471042 -1444261 -1403177 -1348679 -1284890 
3404.527 -1218978 -1158773 -1112441 -1086562 -1084183 -1104509 -1143208 
3407.903 -1193833 -1248384 -1299922 -1343328 -1375631 -1396010 -1404564 
3411.278 -1402417 -1390858 -1371866 -1348513 -1325358 -1307355 -1299294 
3414.653 -1304051 -1321394 -1347556 -1377019 -1403078 -1420483 -1427121 
3418.028 -1423884 -1413448 -1399610 -1385639 -1373055 -1362684 -1355384 
3421.404 -1351684 -1353435 -1361957 -1377382 -1397463 -1417874 -1433164 
3424.779 -1438019 -1429697 -1408659 -1378043 -1343261 -1310229 -1283503 
3428.154 -1265828 -1257998 -1259022 -1266985 -1279274 -1292225 -1302399 
3431.529 -1306066 -1300880 -1287170 -1267348 -1246633 -1231567 -1227734 
3434.905 -1237547 -1260575 -1292357 -1327109 -1358951 -1384087 -1401625 
3438.280 -1412887 -1420384 -1426460 -1432075 -1436368 -1437359 -1432999 
3441.655 -1422365 -1405621 -1384615 -1362882 -1344351 -1332625 -1331205 
3445.030 -1341874 -1364831 -1398058 -1437491 -1477746 -1513969 -1542694 
3448.406 -1563692 -1578021 -1588882 -1597498 -1604200 -1607072 -1602648 
3451.781 -1587792 -1561315 -1524535 -1481477 -1437557 -1398652 -1368959 
3455.156 -1350396 -1343162 -1345177 -1354426 -1367935 -1383525 -1398751 
3458.531 -1412061 -1421870 -1428310 -1432702 -1437590 -1445945 -1459782 
3461.906 -1479199 -1501025 -1520374 -1531799 -1530874 -1516445 -1490756 
3465.282 -1459650 -1429928 -1408659 -1400568 -1407636 -1429102 -1461499 
3468.657 -1501124 -1543156 -1583864 -1619352 -1645925 -1660547 -1660547 
3472.032 -1644835 -1613938 -1570031 -1517634 -1461862 -1408593 -1363179 
3475.407 -1329652 -1309568 -1303225 -1308081 -1319974 -1335003 -1348646 
3478.783 -1357663 -1361329 -1360305 -1357498 -1355978 -1358786 -1366350 
3482.158 -1377316 -1388116 -1395283 -1395911 -1389702 -1378307 -1365755 
3485.533 -1356639 -1354360 -1360504 -1373980 -1390990 -1406480 -1416090 
3488.908 -1417213 -1410047 -1397727 -1384714 -1376094 -1375070 -1382865 
3492.284 -1398223 -1418039 -1438548 -1456711 -1471439 -1483789 -1495478 
3495.659 -1508224 -1521959 -1534407 -1540944 -1536421 -1517073 -1482237 
3499.034 -1435575 -1383162 -1333880 -1295528 -1273163 -1267910 -1276896 
3502.409 -1293546 -1310229 -1321691 -1325457 -1322880 -1317199 -1312178 
3505.785 -1310856 -1314886 -1325622 -1343790 -1371337 -1410344 -1462159 
3509.160 -1526054 -1597960 -1670681 -1734709 -1780084 -1799487 -1788796 
3512.535 -1748603 -1683817 -1603275 -1517799 -1438283 -1374343 -1332262 
3515.910 -1314193 -1318553 -1340388 -1372427 -1406810 -1436896 -1458098 
3519.286 -1468962 -1470514 -1465660 -1456942 -1446903 -1437359 -1428277 
3522.661 -1420879 -1416222 -1416718 -1424479 -1441322 -1466023 -1494884 
3526.036 -1522323 -1541473 -1547151 -1537081 -1513903 -1483987 -1455291 
3529.411 -1435080 -1426989 -1430324 -1440793 -1451988 -1458230 -1455291 
3532.787 -1442510 -1421606 -1396671 -1372626 -1354426 -1345475 -1347457 
3536.162 -1359480 -1378670 -1399874 -1417378 -1425833 -1421903 -1404432 
3539.537 -1375202 -1338604 -1300781 -1268471 -1246996 -1240223 -1249904 
3542.912 -1275905 -1317397 -1373286 -1442312 -1522157 -1608986 -1695369 
3546.288 -1771967 -1828359 -1856436 -1852642 -1819681 -1765499 -1700749 
3549.663 -1637342 -1585482 -1551410 -1536718 -1538171 -1547713 -1556264 
3553.038 -1557287 -1548010 -1530577 -1510106 -1492143 -1480685 -1476194 
3556.413 -1476458 -1476392 -1470382 -1453640 -1424644 -1385804 -1343361 
3559.789 -1306264 -1282941 -1280794 -1301772 -1343261 -1398916 -1460046 
3563.164 -1517799 -1564980 -1597894 -1615952 -1621927 -1619880 -1614037 
3566.539 -1606411 -1595881 -1579539 -1555537 -1524898 -1491483 -1460938 
3569.914 -1438548 -1427550 -1429036 -1440859 -1459484 -1479463 -1495907 
3573.290 -1506440 -1510304 -1509842 -1508025 -1508455 -1514365 -1527473 
3576.665 -1548538 -1576964 -1611726 -1649589 -1686193 -1715633 -1731376 
3580.040 -1727977 -1702498 -1655464 -1591028 -1516445 -1440331 -1370479 
3583.415 -1313994 -1275640 -1258560 -1264903 -1295991 -1351321 -1426295 
3586.791 -1510931 -1589476 -1645397 -1668502 -1658204 -1622290 -1572012 
3590.166 -1518757 -1470976 -1434056 -1410707 -1401228 -1403507 -1414010 
3593.541 -1429036 -1443897 -1454729 -1459385 -1456579 -1447464 -1433990 
3596.916 -1419756 -1408197 -1402880 -1406182 -1418831 -1439406 -1464636 
3600.292 -1489766 -1509412 -1518657 -1514068 -1493497 -1457041 -1406182 
3603.667 -1344715 -1278217 -1214419 -1163168 -1134451 -1137557 -1177212 
3607.042 -1252018 -1351321 -1457932 -1553953 -1625591 -1668502 -1686655 
3610.417 -1688306 -1680846 -1668964 -1653550 -1631896 -1600998 -1559862 
3613.792 -1511492 -1462523 -1420681 -1392410 -1382402 -1392773 -1422894 
3617.168 -1469292 -1524898 -1578252 -1614961 -1622257 -1593041 -1529818 
3620.543 -1442973 -1347556 -1257470 -1183028 -1129890 -1097766 -1081968 
3623.918 -1074168 -1065508 -1048783 -1021612 -987199 -955858 -943559 -968090 
3627.776 -1043494 -1167035 -1311253 -1431414 -1495478 -1499407 -1459749 
3631.151 -1398421 -1333781 -1277755 -1237085 -1214220 -1207645 -1214022 
3634.526 -1228659 -1247988 -1270090 -1293612 -1316802 -1336655 -1348580 
3637.901 -1347457 -1329751 -1295198 -1247922 -1195882 -1148992 -1116175 
3641.277 -1102724 -1108409 -1126916 -1147471 -1159996 -1157319 -1138879 
3644.652 -1110524 -1083885 -1074697 -1098758 -1167762 -1283239 -1432999 
3648.027 -1591457 -1729198 -1823310 -1863629 -1852279 -1799520 -1717350 
3651.402 -1615787 -1504162 -1390527 -1283239 -1192479 -1128601 -1101865 
3654.778 -1119216 -1179459 -1268934 -1363146 -1438779 -1482039 -1493266 
3658.153 -1482072 -1460310 -1436467 -1414241 -1393599 -1371998 -1348018 
3661.528 -1321625 -1295825 -1274913 -1263152 -1262491 -1272204 -1288392 
3664.903 -1306463 -1320700 -1327208 -1323905 -1312244 -1296849 -1286113 
3668.279 -1290969 -1320964 -1377448 -1446638 -1503139 -1521332 -1489600 
3671.654 -1414538 -1313499 -1208372 -1122686 -1082067 -1109962 -1216599 
3675.029 -1380222 -1547085 -1658303 -1691903 -1665829 -1613179 -1561777 
3678.404 -1526054 -1509544 -1506474 -1507167 -1502412 -1487850 -1463612 
3681.780 -1432405 -1396373 -1355483 -1306529 -1245906 -1170835 -1082596 
3685.155 -985612 -887912 -798789 -727709 -683381 -671703 -694133 -746067 
3689.012 -818566 -900841 -984224 -1062765 -1133658 -1196146 -1250135 
3692.387 -1296090 -1334178 -1363609 -1381676 -1384648 -1368563 -1331535 
3695.763 -1276070 -1210024 -1145654 -1095817 -1070929 -1075424 -1108210 
3699.138 -1162805 -1230113 -1299823 -1361594 -1407470 -1432801 -1437491 
3702.513 -1424710 -1399412 -1367671 -1334079 -1303258 -1278680 -1262756 
3705.888 -1256280 -1258659 -1267117 -1277722 -1285915 -1287666 -1279638 
3709.264 -1261137 -1233516 -1201664 -1173644 -1158509 -1163367 -1189835 
3712.639 -1233417 -1285353 -1335664 -1376358 -1402681 -1413151 -1408824 
3716.014 -1392608 -1368596 -1341147 -1313829 -1289549 -1269760 -1255157 
3719.389 -1245609 -1241148 -1241644 -1246369 -1253802 -1261467 -1266258 
3722.765 -1266258 -1260840 -1252250 -1243990 -1240653 -1245411 -1258824 
3726.140 -1278085 -1297543 -1310691 -1313036 -1303886 -1285915 -1264705 
3729.515 -1246468 -1237646 -1242503 -1261599 -1290242 -1319478 -1339033 
3732.890 -1343526 -1335169 -1324796 -1327934 -1357762 -1416586 -1492539 
3736.266 -1565508 -1617239 -1641733 -1642624 -1628067 -1605388 -1577921 
3739.641 -1544906 -1502974 -1449875 -1386564 -1319412 -1261666 -1232426 
3743.016 -1251126 -1328958 -1451526 -1574059 -1643119 -1634768 -1559631 
3746.391 -1446275 -1320964 -1204308 -1110028 -1046535 -1018207 -1025678 
3749.767 -1066368 -1135310 -1225157 -1324929 -1419063 -1490525 -1526615 
3753.142 -1522620 -1483128 -1418402 -1341313 -1262987 -1193106 -1138053 
3756.517 -1101336 -1083951 -1086166 -1107285 -1145951 -1198790 -1257899 
3759.892 -1311153 -1346367 -1354195 -1333154 -1289020 -1232657 -1176221 
3763.268 -1130816 -1103319 -1094362 -1097205 -1099221 -1088446 -1058468 
3766.643 -1012356 -960024 -916083 -895054 -907553 -957412 -1038073 -1133922 
3770.500 -1224992 -1295991 -1339859 -1357300 -1353633 -1335268 -1308412 
3773.875 -1277490 -1246005 -1216137 -1189339 -1167299 -1151933 -1145654 
3777.251 -1150181 -1166935 -1194494 -1228560 -1262326 -1289020 -1305240 
3780.626 -1312772 -1317033 -1324532 -1340223 -1364699 -1394292 -1420879 
3784.001 -1434254 -1427088 -1397760 -1352510 -1302267 -1258659 -1229485 
3787.376 -1216533 -1215773 -1220036 -1222415 -1218351 -1207612 -1193106 
3790.752 -1179691 -1170174 -1164754 -1160161 -1152197 -1137689 -1116638 
3794.127 -1092214 -1071226 -1060187 -1062500 -1074598 -1087355 -1088215 
3797.502 -1068251 -1025678 -966735 -904180 -854580 -838475 -873958 -967462 
3801.360 -1102790 -1244320 -1356210 -1419591 -1436665 -1420318 -1385936 
3804.735 -1346201 -1311781 -1290408 -1285716 -1295924 -1314060 -1331502 
3808.110 -1341412 -1340949 -1329652 -1307916 -1275541 -1232096 -1177708 
3811.485 -1114820 -1048915 -988653 -944386 -927854 -948981 -1012521 -1112143 
3815.343 -1226710 -1324334 -1375797 -1372328 -1327043 -1265002 -1209892 
3818.718 -1181211 -1190661 -1239463 -1313895 -1385837 -1423257 -1408824 
3822.093 -1350066 -1270321 -1192743 -1131047 -1091883 -1075787 -1080117 
3825.469 -1099849 -1127940 -1157385 -1180979 -1194329 -1195849 -1186035 
3828.844 -1167894 -1145026 -1121893 -1102360 -1089471 -1083786 -1082761 
3832.219 -1081671 -1075060 -1059063 -1032024 -995364 -951725 -905635 -862351 
3836.076 -827661 -808182 -809835 -837086 -889400 -960751 -1038602 -1108210 
3839.934 -1157980 -1181112 -1178336 -1155733 -1122983 -1090330 -1066136 
3843.309 -1054766 -1055427 -1063756 -1074135 -1082861 -1089008 -1094230 
3846.684 -1100477 -1108574 -1116439 -1118687 -1107450 -1075325 -1017314 
3850.060 -934037 -832688 -729230 -649603 -627271 -693967 -856035 -1073970 
3853.917 -1276631 -1411269 -1465726 -1455092 -1402252 -1327010 -1243792 
3857.292 -1161913 -1088016 -1026504 -979198 -946336 -927226 -918662 -917604 
3861.150 -921341 -928251 -940749 -963594 -1002340 -1059459 -1130783 -1203416 
3865.007 -1260113 -1287467 -1280794 -1246468 -1197600 -1151371 -1124074 
3868.382 -1129527 -1173280 -1247261 -1327472 -1386465 -1409848 -1400237 
3871.758 -1371998 -1340223 -1316835 -1306628 -1305934 -1304348 -1289912 
3875.133 -1253505 -1193305 -1113531 -1021612 -926499 -836954 -763333 -715569 
3878.990 -701940 -725493 -779606 -848164 -910330 -951395 -967561 -966603 
3882.848 -961743 -969743 -1005017 -1075126 -1175197 -1285981 -1378967 
3886.223 -1429598 -1430688 -1391353 -1329421 -1261963 -1202821 -1161450 
3889.598 -1143440 -1149520 -1175791 -1214154 -1253340 -1283437 -1298733 
3892.973 -1298105 -1282875 -1256875 -1224298 -1189141 -1155237 -1126189 
3896.349 -1104343 -1091156 -1087355 -1091784 -1102129 -1114357 -1124371 
3899.724 -1128040 -1123148 -1109598 -1090694 -1071557 -1059063 -1059922 
3903.099 -1078266 -1113597 -1160426 -1209000 -1248847 -1272799 -1278448 
3906.474 -1267348 -1244122 -1214419 -1184581 -1159236 -1141920 -1133922 
3909.850 -1133559 -1136830 -1138416 -1132964 -1116902 -1089867 -1055328 
3913.225 -1019529 -989017 -969281 -962569 -967561 -979364 -990571 -996025 
3917.082 -993612 -985744 -978174 -976521 -983728 -998373 -1016389 -1032718 
3920.940 -1043230 -1046436 -1043660 -1037974 -1032189 -1028686 -1027859 
3924.315 -1029545 -1032553 -1036421 -1042007 -1049708 -1059922 -1072152 
3927.690 -1084612 -1095288 -1102592 -1105566 -1104905 -1102261 -1099221 
3931.065 -1097072 -1095420 -1092974 -1088545 -1080646 -1069210 -1054567 
3934.441 -1037908 -1020455 -1003463 -988554 -977479 -971661 -971760 -977380 
3938.298 -986339 -996092 -1004521 -1010802 -1016091 -1022934 -1034008 
3941.673 -1050370 -1070003 -1087752 -1097469 -1094792 -1079192 -1055030 
3945.049 -1029049 -1009315 -1001216 -1007496 -1026834 -1054435 -1084678 
3948.424 -1111879 -1133261 -1148132 -1156757 -1158971 -1153288 -1137590 
3951.799 -1110061 -1071656 -1026504 -981248 -944419 -922630 -919026 -932450 
3955.656 -957412 -986108 -1011133 -1027892 -1035958 -1037809 -1038503 
3959.032 -1041842 -1050072 -1061938 -1074961 -1084877 -1089372 -1088016 
3962.407 -1083257 -1078167 -1076052 -1077110 -1080183 -1081605 -1077936 
3965.782 -1067194 -1050270 -1030371 -1012786 -1001976 -1000257 -1006472 
3969.157 -1016554 -1024818 -1025942 -1017480 -1000158 -977281 -954040 
3972.533 -935492 -925011 -923655 -930003 -940881 -951262 -956519 -952684 
3976.390 -937575 -911521 -877330 -840790 -807884 -784501 -774082 -776365 
3980.248 -787709 -802691 -816383 -826470 -834242 -843700 -860433 -887713 
3984.105 -924746 -966272 -1003728 -1028586 -1033842 -1017612 -982802 -935492 
3987.962 -883249 -833283 -791447 -761415 -745240 -744115 -757479 -783310 
3991.820 -817475 -854547 -887747 -911785 -923920 -925275 -920415 -916315 
3995.677 -918960 -931656 -954403 -982868 -1011529 -1034041 -1046668 -1048056 
3999.535 -1039098 -1023099 -1003695 
##END=
