##TITLE=masinsko_5 31.08. 12:04:05 2026 (GMT+02:00)
##JCAMP-DX=5.01  $$ Nicolet v. 970
##DATATYPE=INFRARED SPECTRUM
##ORIGIN=Vojna akademija
##OWNER=Nicolet
##LONGDATE=2026/08/31
##TIME=12:04:36
##SPECTROMETER/DATA SYSTEM=Nicolet iS20
##DATA PROCESSING=
Ratio against background
%Transmittance->Absorbance
Truncated
ElementMultiply or ElementDivide
##COMMENTS=
Number of sample scans: 8
Collection length: 11,90 sec
Sample gain: 8,0
Background collected on: Mon Aug 31 11:53:23 2026 (GMT+02:00);
Number of background scans: 8
Background gain: 8,0
Sample spacing:  1,000
Number of scan points: 12415
Resolution points: 8286
Number of FFT points: 65536
Apodization: N-B strong;
Phase correction: Mertz;
Laser frequency: 15798,00 cm-1
Number of rejected sample scans: 0
Number of rejected background scans: 0
Bench serial number: BER2010005;
##RESOLUTION= 4,000
##XUNITS=1/CM
##YUNITS=ABSORBANCE
##FIRSTX=400.156891
##LASTX=4000.123047
##FIRSTY=-0.020342
##MAXX=4000.123047
##MINX=400.156891
##MAXY=0.276119
##MINY=-0.020342
##XFACTOR=1.000000
##YFACTOR=1.000000E-009
##NPOINTS=7468
##DELTAX=0.482117
##ZPD=6100
##XYDATA=(X++(Y..Y))
400.157 -20342390 -16502233 -12590547 -9024016 -6058286 -3766040 -2075386 
403.532 -833614 137229 993865 1855321 2783312 3781837 4816097 5832208 
407.389 6774499 7599424 8284830 8824778 9229316 9512291 9667873 9653645 
411.246 9393838 8786536 7760226 6317840 4581469 2766105 1136625 -77129 
415.103 -748482 -840228 -385310 554023 1883540 3471240 5105095 6453011 
418.959 7175582 7099121 6313301 5078208 3676999 2351482 1274746 591447 
422.816 384624 649614 1270824 2037945 2720457 3144010 3265244 3161265 
426.673 2984108 2879929 2947544 3199716 3571485 3957815 4275553 4514269 
430.530 4758174 5162260 5889838 7045203 8601560 10384279 12091652 13390482 
434.387 13950984 13557476 12189033 10066451 7612271 5306732 3564369 2587576 
438.244 2370871 2750466 3498395 4376720 5188951 5815820 6198540 6330716 
442.101 6231513 5931790 5469036 4892526 4276289 3706272 3268282 3030584 
445.958 3016938 3200651 3504207 3833212 4102924 4277829 4378059 4460302 
449.815 4583378 4779346 5035467 5294859 5477055 5510074 5371270 5097585 
453.672 4772478 4482866 4299144 4252967 4340876 4534391 4795862 5085181 
457.529 5364360 5599379 5754338 5790836 5674602 5373082 4867797 4159891 
461.386 3278799 2287957 1275743 348345 -403484 -918563 -1167332 -1151602 
465.243 -895881 -453699 96629 647125 1081581 1311335 1295017 1054909 660598 
469.582 211711 -197202 -490040 -614367 -544415 -276051 173126 763681 1428036 
473.921 2075231 2611609 2947444 3025045 2835036 2428011 1909065 1421088 
477.778 1101512 1022161 1171043 1456427 1756936 1959387 2006687 1911362 
481.635 1746490 1607221 1564055 1635024 1774901 1892459 1886169 1689506 
485.492 1285912 712269 33665 -673754 -1339033 -1898731 -2283844 -2427824 
489.348 -2275044 -1798299 -1019595 -16964 1077429 2116749 2959720 3518537 
493.205 3782639 3813490 3714292 3587521 3514394 3535105 3654277 3849726 
497.062 4088107 4331806 4546612 4705885 4785544 4764070 4625471 4360053 
500.919 3971023 3474847 2901977 2288657 1675569 1107391 631695 305072 188142 
505.258 326890 743202 1411814 2257680 3156660 3976842 4615123 5023869 
509.115 5221311 5272454 5263097 5265378 5324543 5449609 5619216 5792683 
512.972 5927961 5995682 5979255 5878519 5704212 5478800 5229728 4988407 
516.829 4782394 4626408 4520898 4452100 4402325 4357375 4316178 4288737 
520.686 4292653 4340206 4429237 4537237 4625873 4645464 4548386 4305335 
524.543 3917191 3423480 2895873 2430210 2114751 2004157 2108725 2392727 
528.400 2790248 3218576 3601619 3874899 4000484 3974300 3827663 3618525 
532.257 3409454 3256965 3192139 3216373 3306309 3427588 3546062 3642081 
536.114 3716130 3783307 3863499 3967278 4087973 4200572 4272341 4272508 
539.971 4190200 4039142 3859287 3701593 3616186 3633727 3753995 3946079 
543.828 4156512 4330769 4424785 4423246 4341846 4225865 4131223 4105901 
547.685 4178023 4346900 4586860 4854494 5103888 5292243 5390191 5387138 
551.542 5288050 5111934 4887500 4652765 4446978 4307711 4261867 4317148 
555.398 4459264 4654038 4859152 5032886 5145931 5189957 5175404 5125143 
559.255 5064095 5013109 4982206 4972587 4982407 5010160 5057524 5128027 
563.112 5221847 5331923 5442294 5531954 5577999 5566253 5496685 5385528 
566.969 5259743 5151162 5084108 5065402 5079683 5090779 5054507 4929153 
570.826 4693459 4356438 3960624 3572019 3262507 3093584 3091815 3241042 
574.683 3481560 3732873 3911407 3962664 3882889 3717935 3544325 3435904 
578.540 3444654 3579102 3806705 4060246 4264578 4355568 4300784 4106436 
582.397 3811418 3472509 3145345 2881330 2714156 2657045 2703620 2831034 
586.254 3007729 3200150 3384943 3549603 3695411 3832343 3971926 4119549 
590.111 4270199 4407547 4511791 4569749 4583545 4573633 4572930 4615592 
593.968 4720925 4887667 5091014 5291337 5440147 5494806 5428136 5230063 
597.825 4909516 4488892 4004563 3500098 3024578 2624876 2333326 2161401 
601.682 2095040 2103231 2142188 2170892 2162000 2104430 2005888 1885271 
605.539 1765353 1662763 1586103 1536123 1509423 1503505 1519066 1560630 
609.396 1634625 1747820 1902176 2095673 2319868 2559811 2793149 2995318 
613.253 3139705 3204790 3181392 3076165 2915320 2736962 2584509 2490023 
617.109 2463664 2489657 2534647 2561411 2543013 2476194 2381099 2293486 
620.966 2247156 2262843 2337057 2444071 2543679 2599142 2591709 2528448 
624.823 2440673 2374036 2373303 2463598 2643444 2883932 3141974 3371051 
628.680 3537176 3629350 3659356 3657017 3659456 3700457 3797813 3950994 
632.537 4142328 4344490 4527259 4664320 4738544 4740922 4669377 4525820 
636.394 4317383 4057570 3768501 3483598 3240674 3075798 3014569 3061015 
640.251 3196078 3379333 3563233 3698352 3750419 3705470 3569146 3362804 
644.108 3116310 2862318 2626776 2427678 2272469 2158238 2074365 2006653 
647.965 1944410 1885204 1841013 1835024 1899181 2059117 2324399 2677948 
651.822 3078801 3464760 3769570 3945243 3970321 3858351 3648964 3399536 
655.679 3164269 2983407 2880630 2861384 2919723 3044264 3220946 3432364 
659.536 3656047 3866976 4039444 4155642 4210240 4213787 4188394 4158486 
663.393 4143064 4147346 4161563 4164708 4133330 4043490 3877339 3628549 
667.250 3313253 2979671 2694418 2504653 2407053 2367540 2353181 2350283 
671.107 2360410 2390828 2446037 2521516 2603775 2675414 2723258 2746665 
674.963 2758936 2783279 2840439 2939004 3067822 3200184 3302269 3346275 
678.820 3324004 3249154 3153055 3071059 3030918 3038358 3076632 3112172 
682.677 3110069 3047635 2925527 2768106 2619375 2529415 2535814 2659079 
686.534 2894806 3217307 3582375 3940729 4246610 4466261 4587027 4613247 
690.391 4567740 4481158 4389473 4324310 4306507 4344624 4433790 4562349 
694.248 4716034 4885724 5071603 5282549 5531786 5830730 6182273 6577023 
698.105 6993042 7399719 7767748 8072759 8303541 8461900 8559383 8612003 
701.962 8635223 8642422 8642862 8643268 8649081 8665204 8697182 8750461 
705.819 8831304 8946797 9103632 9308286 9566179 9880353 10251915 10679723 
709.676 11160168 11688660 12259442 12866743 13505860 14174025 14870511 
713.051 15598511 16364375 17177710 18050770 18995642 20020464 21127258 
716.425 22309740 23551204 24826748 26107494 27358254 28541854 29620410 
719.800 30550720 31290338 31802670 32063324 32071564 31852868 31456168 
723.175 30936738 30348174 29728296 29094916 28453082 27802092 27144038 
726.550 26487926 25846520 25231308 24647790 24094054 23564390 23054032 
729.925 22562382 22092384 21646364 21221712 20809886 20400114 19987296 
733.300 19579028 19197152 18872776 18638040 18510708 18489340 18551858 
736.674 18664880 18790628 18897934 18965874 18979444 18924340 18783882 
740.049 18539616 18182042 17718966 17182674 16621742 16092030 15638044 
743.424 15278012 15003261 14784799 14590604 14398961 14210759 14046764 
746.799 13938290 13909243 13966758 14095501 14265266 14439927 14589815 
750.174 14699172 14763271 14783085 14756792 14677340 14534034 14319233 
753.548 14034786 13694921 13325424 12958563 12623461 12342680 12128516 
756.923 11981961 11896068 11857044 11848668 11851664 11847272 11821871 
760.298 11769949 11697850 11625490 11582236 11595338 11684711 11852005 
763.673 12079488 12331158 12564794 12743345 12841658 12853910 12789649 
767.048 12670572 12520935 12363782 12217795 12095194 12002842 11943168 
770.423 11913232 11903935 11900257 11883707 11834775 11740775 11599489 
773.797 11422156 11229629 11047722 10898814 10792583 10724042 10675343 
777.172 10623661 10549239 10444622 10316413 10182951 10064992 9976833 
780.547 9919742 9881403 9839578 9771525 9663334 9512697 9328936 9127250 
784.404 8922275 8722941 8532282 8352042 8186632 8047173 7949973 7908906 
788.261 7929860 8004071 8109554 8213745 8285438 8304452 8265716 8181229 
792.118 8071408 7958781 7857484 7771526 7696242 7625052 7553737 7484593 
795.975 7427863 7397158 7405112 7459581 7561054 7702954 7873814 8058008 
799.832 8239949 8405380 8543264 8648912 8724902 8781971 8835835 8903707 
803.689 8997873 9121058 9266210 9420214 9568718 9701450 9816226 9916793 
807.546 10008941 10095004 10171350 10229729 10262229 10267861 10255240 
810.920 10241331 10246351 10284078 10357233 10455143 10559117 10649263 
814.295 10713785 10752503 10775905 10797169 10822849 10846698 10848531 
817.670 10799751 10672932 10454430 10150490 9790502 9417912 9084109 8833299 
821.527 8690320 8656315 8708236 8809257 8914970 8989620 9011540 8975954 
825.384 8892716 8780653 8658512 8538161 8422068 8304722 8177043 8030533 
829.241 7863119 7679514 7491773 7315435 7166116 7057865 6999305 6992066 
833.098 7029712 7098852 7179389 7249327 7290264 7290905 7251887 7185115 
836.955 7111853 7054127 7029712 7046718 7101984 7184610 7281268 7381351 
840.812 7479638 7576496 7673478 7770447 7863693 7946261 8012442 8061552 
844.669 8099528 8138655 8191359 8265040 8358291 8461022 8556038 8626706 
848.525 8662026 8657937 8617310 8546137 8451629 8339680 8217730 8095545 
852.382 7985442 7900875 7850838 7834812 7840143 7844057 7821656 7752535 
856.239 7632200 7473536 7305697 7162546 7074704 7059448 7116096 7228203 
860.096 7369219 7513820 7641339 7741775 7814773 7866257 7904013 7935057 
863.953 7963775 7991112 8016120 8036979 8052877 8065535 8080725 8106583 
867.810 8153037 8226949 8328737 8448386 8567291 8660574 8704044 8684911 
871.667 8603858 8478523 8335288 8203548 8104321 8043764 8013656 7994385 
875.524 7965361 7911673 7830562 7731791 7634257 7556974 7514798 7513113 
879.381 7547332 7606404 7677457 7751287 7823814 7897366 7978556 8075662 
883.238 8194701 8338363 8504000 8685621 8874893 9062658 9242855 9412257 
887.095 9568753 9711276 9835646 9933811 9994667 10006364 9961271 9860829 
890.952 9717070 9549751 9383816 9242043 9138213 9076056 9048584 9041310 
894.809 9036913 9021689 8986169 8926402 8842666 8736599 8610415 8467103 
898.666 8311342 8151619 7999785 7870778 7777868 7729497 7724371 7751557 
902.523 7791968 7822397 7824860 7789775 7721133 7634864 7556199 7510584 
906.379 7516113 7578958 7690036 7828437 7965260 8074244 8137439 8149627 
910.236 8119243 8065974 8014500 7987534 8002823 8068809 8184876 8342854 
914.093 8529613 8729398 8924406 9098387 9236085 9325652 9360624 9341089 
917.950 9273589 9168974 9042528 8909321 8783121 8675582 8593956 8540595 
921.807 8512447 8501634 8495383 8478253 8438081 8367580 8269633 8158304 
925.664 8057164 7992866 7988378 8057062 8198078 8396563 8625962 8857985 
929.521 9065094 9227591 9335131 9386355 9387642 9350806 9294576 9240790 
933.378 9211887 9229519 9306491 9444019 9628507 9834968 10029896 10180780 
937.235 10264841 10271220 10202489 10070655 9893267 9686914 9465760 9241264 
941.092 9023042 8821769 8649318 8516671 8433521 8405008 8431359 8508866 
944.949 8631472 8791540 8978321 9178077 9371526 9534949 9647309 9693996 
948.806 9674447 9602897 9507041 9418589 9362147 9348977 9372203 9412934 
952.663 9447169 9459054 9446356 9421839 9405587 9418014 9470162 9560081 
956.520 9675632 9800737 9922725 10035559 10139569 10235801 10321468 10387740 
960.377 10420694 10407628 10344983 10241636 10119389 10004567 9922285 
963.751 9886623 9898216 9946252 10015044 10091037 10166296 10239296 10311662 
967.608 10382209 10445402 10489866 10503037 10475508 10405592 10300431 
970.983 10173046 10039933 9915234 9808735 9725846 9668212 9635384 9624374 
974.840 9630438 9645242 9657778 9656998 9633622 9584537 9514187 9434097 
978.697 9358423 9299180 9262182 9244412 9234969 9218249 9180413 9112530 
982.554 9014145 8892987 8763917 8644992 8553605 8504878 8507750 8563676 
986.411 8666996 8805877 8962965 9117843 9252129 9349215 9399289 9400745 
990.268 9359743 9288517 9201800 9114020 9034172 8965197 8903098 8840772 
994.125 8770848 8691435 8608015 8535019 8491532 8495046 8556443 8674128 
997.982 8833705 9010119 9177298 9312619 9403928 9451841 9467250 9465996 
1001.839 9462407 9464235 9471347 9477510 9474293 9457124 9428239 9397461 
1005.695 9378906 9386863 9430136 9507753 9608080 9710835 9794027 9838900 
1009.552 9837476 9794773 9728218 9660929 9614754 9603778 9629557 9681968 
1013.409 9745025 9805109 9855473 9899200 9944998 10001414 10069401 10139366 
1017.266 10192143 10207645 10171892 10084016 9956390 9811142 9671770 9553205 
1021.123 9460950 9391434 9339024 9302565 9288855 9310113 9378602 9498812 
1024.980 9661843 9847780 10032541 10193500 10319297 10412311 10486031 
1028.356 10559695 10650214 10768093 10913967 11080420 11252036 11409367 
1031.731 11529629 11589212 11568863 11456992 11255777 10982675 10671913 
1035.106 10364834 10099311 9902861 9784063 9734283 9733538 9760443 9798636 
1038.964 9839950 9883844 9931709 9981918 10028370 10061364 10070757 10051767 
1042.821 10004668 9934387 9848423 9755326 9663097 9583080 9530749 9523603 
1046.678 9578507 9702568 9887911 10107282 10321604 10487932 10570457 
1050.054 10554942 10449407 10283841 10096225 9925946 9802025 9739400 9739942 
1053.911 9795247 9890725 10006534 10120610 10210495 10255274 10242078 
1057.286 10169518 10050580 9907132 9765797 9647716 9561606 9503283 9461188 
1061.144 9422415 9380531 9337196 9300094 9274402 9257342 9233920 9181055 
1065.001 9077985 8913110 8693835 8443960 8200576 8000089 7869327 7820306 
1068.859 7848207 7936273 8060978 8200611 8336336 8454805 8546745 8605177 
1072.716 8625489 8606190 8549786 8463623 8358291 8248594 8149999 8078126 
1076.573 8047814 8069384 8146555 8273348 8433319 8600106 8740859 8827550 
1080.431 8839522 8773992 8645971 8485078 8324007 8190717 8099663 8048523 
1084.288 8021858 7998097 7959760 7898108 7815988 7724101 7636112 7560447 
1088.146 7497976 7441648 7382362 7314424 7241375 7176289 7139842 7151564 
1092.003 7220892 7341686 7491301 7636888 7742551 7782321 7746700 7643733 
1095.860 7494773 7326926 7163725 7017690 6890557 6777057 6671393 6572112 
1099.718 6484894 6419114 6384311 6383134 6409463 6448471 6482136 6492495 
1103.575 6467943 6406773 6316058 6210539 6108172 6028639 5988090 5996892 
1107.433 6056593 6159789 6289903 6425234 6546479 6641044 6708137 6758008 
1111.290 6809872 6882477 6986779 7121721 7273821 7422908 7547770 7636348 
1115.148 7687001 7709160 7716681 7722347 7732331 7745756 7756280 7757325 
1119.005 7745486 7721470 7687574 7645183 7591265 7519484 7423481 7302091 
1122.862 7162714 7023280 6908365 6840064 6833837 6891062 6997958 7128592 
1126.720 7253943 7348763 7399214 7406662 7385732 7359344 7349201 7370230 
1130.577 7424559 7501077 7578485 7633482 7649230 7621038 7559334 7488200 
1134.435 7439458 7440536 7508831 7644408 7830528 8037013 8229582 8379099 
1138.292 8466327 8487612 8453352 8384638 8307019 8246196 8224618 8255990 
1142.150 8346164 8490619 8677677 8888319 9101804 9299519 9466505 9595580 
1146.007 9686576 9744618 9776507 9789011 9787012 9774338 9755665 9738010 
1149.864 9729675 9739468 9772609 9827545 9895098 9961101 10010297 10031523 
1153.722 10022606 9991005 9951711 9920827 9911031 9926421 9961882 10005449 
1157.579 10043324 10065399 10067976 10054344 10032575 10011349 9995244 
1160.954 9984088 9972731 9955237 9927980 9893538 9860558 9842932 9853711 
1164.812 9901166 9984834 10095241 10215685 10325642 10407526 10447370 
1168.187 10437460 10376135 10266096 10113453 9926828 9718900 9504738 9301549 
1172.045 9126268 8989654 8893798 8829986 8781802 8729095 8655706 8555700 
1175.902 8434974 8309316 8197605 8116609 8073671 8065366 8078733 8097300 
1179.759 8105975 8095983 8066784 8025807 7983956 7952200 7939006 7947813 
1183.617 7977882 8025030 8083797 8148682 8214555 8277367 8333296 8378119 
1187.474 8407846 8418251 8406528 8372545 8319921 8255720 8189637 8132240 
1191.332 8091291 8070159 8067325 8076809 8091763 8105672 8115867 8122821 
1195.189 8128763 8135752 8143854 8149897 8150168 8140715 8120695 8091730 
1199.047 8058616 8025942 7998334 7979198 7970963 7976565 7999988 8044608 
1202.904 8112187 8200138 8300231 8399772 8485991 8548468 8582600 8591759 
1206.761 8584189 8570603 8559518 8556511 8562560 8577599 8601425 8635223 
1210.619 8680145 8734842 8793738 8845844 8877261 8876110 8835835 8758946 
1214.476 8655638 8542352 8435075 8346064 8281993 8244069 8229447 8234040 
1218.334 8255584 8291956 8342584 8407069 8484368 8572834 8669734 8770645 
1222.191 8868705 8954847 9018272 9049261 9042968 9001764 8935736 8861840 
1226.048 8798945 8760130 8750562 8766283 8797017 8831440 8862955 8891262 
1229.906 8921159 8958871 9006128 9058463 9106136 9137672 9145353 9128874 
1233.763 9096459 9059817 9030315 9013638 9008462 9008428 9005519 8996081 
1237.621 8981332 8968005 8964554 8978321 9012791 9066617 9135879 9215170 
1241.478 9299213 9382225 9458004 9518624 9556017 9564180 9542807 9498778 
1245.336 9444967 9398172 9372643 9375724 9406264 9455397 9511038 9562655 
1249.193 9604963 9639923 9673803 9713275 9761223 9814361 9864252 9899165 
1253.050 9909166 9889471 9843035 9778947 9710666 9652933 9617294 9610654 
1256.908 9633961 9683526 9752276 9832900 9919099 10006737 10093377 10177591 
1260.765 10256937 10327033 10382921 10418861 10430672 10417978 10383668 
1264.141 10333786 10276105 10218059 10165923 10124883 10099311 10093648 
1267.516 10112097 10157002 10226811 10314309 10407832 10492683 10554806 
1270.891 10586244 10587636 10568895 10545878 10536101 10552735 10600470 
1274.266 10674731 10763711 10851521 10922598 10966737 10980261 10967518 
1277.641 10937582 10903095 10875405 10861272 10861441 10870309 10877375 
1281.017 10871158 10844490 10796660 10735997 10676158 10634220 10624170 
1284.392 10652285 10716842 10808345 10914477 11023082 11126513 11222795 
1287.767 11313995 11403516 11493870 11584653 11673887 11759158 11839950 
1291.142 11917421 11994496 12072675 12151277 12225974 12291413 12342305 
1294.518 12377793 12401693 12423001 12453143 12501770 12573764 12667467 
1297.893 12774703 12883091 12979422 13053783 13100189 13118322 13112756 
1301.268 13091413 13062662 13034697 13013597 13001681 12998814 13001579 
1304.643 13005676 13004856 12993828 12967917 12924393 12863467 12789206 
1308.019 12709738 12636014 12579801 12551118 12553778 12584269 12630966 
1311.394 12677190 12703630 12694999 12644918 12557734 12446358 12328908 
1314.769 12221782 12134990 12071687 12028185 11998039 11973412 11947731 
1318.144 11917489 11880335 11835422 11782343 11722154 11656904 11591356 
1321.520 11532250 11486862 11462026 11461822 11486726 11533032 11593568 
1324.895 11660068 11724776 11782818 11833175 11878463 11923312 11973923 
1328.270 12035202 12109095 12195133 12289436 12387441 12484105 12577789 
1331.645 12669514 12764261 12868756 12989971 13132939 13299459 13487266 
1335.021 13690817 13902640 14114223 14317623 14507071 14678540 14830122 
1338.396 14962448 15078691 15184499 15287072 15393241 15505548 15621798 
1341.771 15734954 15835561 15913645 15961869 15979366 15972560 15954994 
1345.146 15945027 15962282 16021788 16132057 16293710 16499924 16737465 
1348.522 16988956 17236314 17462120 17652736 17801358 17907174 17975858 
1351.897 18017648 18045554 18070976 18102860 18146216 18202946 18273990 
1355.272 18362124 18472538 18614106 18795784 19024374 19302618 19629362 
1358.647 20000862 20415430 20878506 21406434 22026984 22773166 23672778 
1362.023 24729684 25909718 27141884 28340562 29435708 30385700 31179252 
1365.398 31820278 32318208 32687154 32950948 33152960 33354312 33634448 
1368.773 34068120 34705928 35570820 36661480 37971004 39504748 41292408 
1372.148 43381700 45813088 48581352 51584332 54609164 57389664 59681812 
1375.524 61348392 62359620 62737696 62507024 61670972 60228468 58209284 
1378.899 55705968 52876344 49892804 46915152 44050032 41346556 38823732 
1382.274 36486012 34335732 32372646 30582360 28930376 27361326 25811882 
1385.649 24226080 22579834 20897838 19250556 17724072 16381888 15241325 
1389.025 14282455 13470246 12771973 12165146 11636551 11176894 10775905 
1392.400 10421949 10103313 9811311 9541588 9294542 9072368 8875401 8701374 
1396.257 8548367 8417643 8313571 8241604 8202704 8189772 8187847 8181195 
1400.115 8162997 8137811 8118095 8115158 8134198 8170054 8208106 8229109 
1403.972 8220296 8182546 8135076 8103478 8108406 8153747 8226881 8307289 
1407.829 8376633 8426731 8460110 8486497 8516435 8554652 8598654 8641206 
1411.687 8677238 8709453 8747350 8802461 8881589 8982313 9093989 9203662 
1415.544 9302124 9390079 9480422 9593141 9746652 9947168 10180067 10415738 
1419.402 10626785 10807529 10970747 11136032 11315900 11512991 11723788 
1422.777 11945177 12179934 12438311 12733553 13074749 13459446 13877152 
1426.152 14316493 14773932 15259308 15793364 16402051 17106292 17911180 
1429.527 18802844 19755148 20744332 21757616 22794398 23857776 24947418 
1432.903 26056582 27179062 28320790 29503862 30774096 32188586 33784412 
1436.278 35528060 37302208 38960604 40412932 41664644 42787116 43868400 
1439.653 44990232 46209232 47553456 49020388 50584528 52206376 53841684 
1443.028 55455996 57024492 58532460 59978012 61369956 62731536 64098932 
1446.404 65517576 67025608 68636600 70331816 72066576 73800824 75525616 
1449.779 77267792 79076832 80998440 83050008 85201040 87378312 89496824 
1453.154 91478088 93287624 94932608 96443488 97849800 99152296 100304112 
1456.529 101213712 101817872 102154320 102329544 102440400 102512888 
1459.422 102530392 102471064 102330840 102120536 101853936 101530568 
1462.316 101121240 100560736 99757296 98613920 97076544 95169208 92976440 
1465.691 90580624 88011424 85235272 82209336 78922152 75419336 71774568 
1469.066 68075000 64377220 60656164 56819904 52731200 48302820 43622804 
1472.441 39030488 34976844 31743418 29317046 27478782 25966910 24602134 
1475.817 23300222 22060764 20921724 19919126 19057158 18309450 17635484 
1479.192 16998808 16375799 15759829 15156157 14576727 14032939 13531053 
1482.567 13073964 12663169 12299559 11983324 11710376 11470566 11248500 
1485.942 11027092 10794383 10546930 10290015 10031422 9773694 9512122 
1489.318 9237541 8950179 8668449 8421494 8232588 8107731 8036034 7997389 
1493.175 7970188 7935529 7881777 7803674 7702583 7582970 7449502 7303979 
1497.032 7147320 6983984 6825994 6690235 6592161 6537666 6520916 6525490 
1500.890 6533361 6530401 6510623 6476116 6432464 6382999 6323992 6240925 
1504.747 6107869 5890846 5566017 5158136 4777369 4565865 4562449 4683377 
1508.605 4824943 4932303 4988809 5000909 4980664 4939944 4886695 4824540 
1512.462 4755996 4684348 4614152 4551367 4498265 4453138 4406208 4344022 
1516.319 4255610 4144503 4030280 3940261 3893420 3894623 3934376 3993160 
1520.177 4042152 4050112 3999012 3898836 3782973 3681009 3602688 3539748 
1524.034 3478287 3408452 3329213 3247985 3177920 3129459 3105331 3099557 
1527.892 3103195 3110570 3120615 3136601 3161733 3196679 3238838 3282404 
1531.749 3321434 3351785 3373857 3391455 3408185 3421811 3424115 3405113 
1535.607 3357728 3278498 3167140 3025846 2859050 2677848 2501154 2360144 
1539.464 2294352 2332460 2466297 2650644 2833736 2977202 3061115 3080770 
1543.321 3041362 2960554 2866488 2790782 2754168 2759903 2795150 2840272 
1547.179 2875426 2885666 2862852 2806922 2726992 2639843 2566077 2519250 
1551.036 2502221 2508586 2528315 2549712 2561011 2552445 2518017 2459266 
1554.894 2385264 2310674 2249720 2212386 2205159 2229737 2280796 2339456 
1558.751 2378667 2387629 2385764 2392760 2411884 2435241 2453335 2458799 
1562.609 2447870 2421280 2383931 2344853 2314905 2302580 2310308 2335658 
1566.466 2373503 2419348 2470262 2522916 2573510 2614708 2639443 2645744 
1570.323 2639910 2632476 2631876 2641043 2657078 2673447 2681715 2674147 
1574.181 2645910 2599375 2545746 2506553 2502254 2538880 2602975 2674081 
1578.038 2736362 2783479 2815260 2834136 2841707 2839405 2828733 2813159 
1581.896 2798052 2790582 2796618 2818961 2854547 2896240 2933300 2956785 
1585.753 2961622 2949546 2926795 2901644 2882031 2872958 2875760 2888635 
1589.610 2908348 2930898 2951847 2966426 2970229 2959320 2933200 2895906 
1593.468 2856648 2827766 2821963 2846576 2900876 2974800 3052940 3119514 
1597.325 3162801 3179756 3174215 3156226 3136968 3128792 3140973 3178922 
1601.183 3243312 3329847 3429458 3528558 3612244 3666406 3681309 3655012 
1605.040 3593000 3505944 3406816 3308746 3223149 3157360 3115676 3098323 
1608.898 3102427 3123352 3154957 3189970 3220111 3238004 3237370 3215538 
1612.755 3172480 3110303 3032353 2942240 2844842 2747599 2661646 2599375 
1616.612 2568310 2563277 2567843 2564910 2542446 2497422 2433842 2360510 
1620.470 2289056 2232901 2206224 2218680 2272102 2353015 2438840 2506353 
1624.327 2542846 2548745 2532114 2502887 2468796 2435775 2407986 2388129 
1628.185 2378334 2379000 2388862 2404355 2421647 2436441 2445271 2446904 
1632.042 2440939 2428877 2411884 2390861 2364908 2331494 2288956 2239495 
1635.900 2192371 2159503 2147382 2155207 2177585 2208522 2242659 2276132 
1639.757 2305944 2329995 2347251 2357112 2358878 2351948 2334259 2303213 
1643.614 2255249 2186110 2092776 1975597 1844274 1721407 1639581 1625346 
1647.472 1678563 1773870 1879680 1976030 2054856 2116616 2165397 2206091 
1651.329 2242260 2272902 2289090 2274101 2218946 2139690 2062946 2000562 
1655.187 1950634 1907235 1866203 1826605 1791203 1765918 1757967 1771940 
1659.044 1808970 1864239 1928734 1989544 2035548 2060349 2066342 2063978 
1662.901 2067674 2086817 2120245 2158504 2190406 2208822 2211286 2201362 
1666.759 2186976 2179450 2190040 2225973 2285725 2357745 2424412 2472262 
1670.616 2499921 2515551 2530148 2551945 2584376 2625376 2667646 2697085 
1674.474 2696185 2649611 2553811 2422347 2278198 2142887 2028990 1944377 
1678.331 1893158 1878116 1899447 1952964 2029056 2114685 2198998 2274400 
1682.189 2336491 2382232 2406454 2403422 2372637 2326264 2280096 2242859 
1686.046 2214284 2191205 2170758 2152677 2139391 2136594 2151445 2189573 
1689.903 2252451 2335958 2431676 2529182 2620175 2698919 2761170 2804421 
1693.761 2824464 2815260 2771241 2693684 2599142 2515118 2466897 2462432 
1697.618 2495156 2551245 2617142 2680815 2735128 2781678 2832302 2898575 
1701.476 2980638 3070425 3156326 3228156 3276562 3294790 3280968 3239906 
1705.333 3183294 3124753 3073729 3031552 2993850 2956051 2916887 2878295 
1709.191 2844442 2819562 2804921 2799786 2801687 2808957 2822163 2844608 
1713.048 2880363 2931565 2995918 3063585 3120281 3149183 3138804 3086676 
1716.905 3004359 2914252 2840639 2797685 2783779 2787414 2795884 2800019 
1720.763 2793450 2771274 2730627 2670580 2594375 2509985 2429177 2363609 
1724.620 2320535 2300914 2299616 2307943 2316271 2317903 2309942 2294785 
1728.478 2278431 2268905 2272369 2290222 2318369 2348784 2372770 2382032 
1732.335 2370338 2333793 2273301 2197632 2123042 2062646 2018936 1984784 
1736.193 1951666 1913392 1866436 1810468 1749218 1692234 1651189 1638483 
1740.050 1660169 1714088 1792102 1884039 1979858 2069837 2145384 2199630 
1743.907 2228471 2231568 2211553 2173322 2121677 2061015 1995402 1928535 
1747.765 1864206 1806109 1758167 1722637 1700649 1691535 1693431 1703477 
1751.622 1719677 1739637 1762325 1786446 1809669 1828768 1838684 1833027 
1755.480 1806442 1757002 1689772 1616632 1552550 1506963 1481428 1469659 
1759.337 1462311 1449711 1426806 1395659 1367206 1356636 1374917 1421953 
1763.194 1486049 1550056 1597942 1620091 1615169 1589628 1555975 1531867 
1767.052 1533862 1570606 1638284 1720874 1796560 1843908 1847601 1799787 
1770.909 1701814 1567414 1424612 1309142 1246002 1240386 1279731 1346897 
1774.767 1425909 1506398 1582112 1648794 1703676 1744793 1769578 1775833 
1778.624 1760861 1724201 1669050 1604593 1543871 1499349 1477937 1478403 
1782.482 1492500 1508259 1514477 1503671 1475144 1435549 1396789 1370995 
1786.339 1365078 1379903 1410551 1449246 1487712 1518833 1537121 1537453 
1790.196 1514610 1462976 1378241 1261653 1124300 985529 864830 777025 728100 
1794.536 717546 740812 790701 857659 930040 996289 1045044 1067199 1057467 
1798.876 1015020 945514 860381 776925 712668 679713 680078 705433 739750 
1803.215 764312 764611 733079 671947 592177 512720 454439 434505 462764 
1807.555 536970 643276 757839 855335 912840 916692 866889 777224 671715 
1811.894 575090 507644 478288 485486 519521 566663 612915 645732 657545 
1816.234 647026 619883 585773 556743 542610 547421 569981 604387 643276 
1820.574 679613 709249 730922 745028 752496 753093 745393 728665 704570 
1824.913 679414 662357 662655 684823 726773 779182 827083 852347 836545 
1829.253 769822 658142 525790 402765 313528 266048 254875 266181 284184 
1833.592 295158 289754 266578 231602 197026 176441 181048 215126 275132 
1837.932 349406 423195 484092 524795 544965 548880 543240 533155 521378 
1842.272 507910 492850 478089 471521 483694 523767 593106 682699 776925 
1846.611 859684 918153 945680 942791 916028 876450 833092 791531 751865 
1850.951 711606 668164 623068 581825 552297 539989 544733 558966 571706 
1855.290 572535 556876 528677 499849 485552 496300 534117 591314 653298 
1859.630 704205 733909 740779 731818 718343 711075 714427 724848 732979 
1863.970 726375 694746 631894 537368 415202 274303 124568 -18952 -138312 
1868.309 -215384 -236015 -197169 -107937 15639 156420 300298 436229 555880 
1872.649 654227 728200 779050 810950 831764 850621 875786 911944 959129 
1876.988 1011865 1062549 1104402 1134366 1154996 1172870 1197024 1233076 
1880.846 1280229 1330312 1369798 1383626 1360624 1297144 1199516 1082511 
1884.703 964475 863635 791398 753458 748479 772809 819116 878276 940068 
1889.043 992669 1025980 1035080 1020301 987422 943986 895541 843184 783829 
1893.382 712336 624694 522407 414406 313959 235746 188871 173292 180949 
1897.722 200374 220695 235215 244432 253748 271253 303414 352324 415500 
1902.062 487509 561487 631894 694580 745525 779581 789439 766204 703176 
1906.401 599609 463892 312566 170044 61004 3810 6925 65908 165436 283885 
1911.223 401405 503631 582920 637801 669890 682202 678186 660233 629505 
1915.563 585939 527482 450425 351296 229513 89868 -56788 -195049 -311811 
1919.902 -396036 -441121 -445325 -412256 -352336 -282806 -225153 -197301 
1923.760 -207800 -253467 -322042 -397426 -463926 -511156 -534388 -534222 
1927.617 -512380 -470314 -405040 -310619 -179549 -8581 199645 432680 671748 
1931.957 893914 1075370 1197855 1251385 1235966 1160478 1040660 893948 
1935.814 735900 581460 443261 332229 255704 217049 213170 234287 266943 
1940.154 293401 296020 262633 189369 84201 -35551 -147156 -233929 -286713 
1944.493 -307308 -303236 -284296 -256149 -220451 -171335 -99788 1159 134876 
1948.833 296650 474274 651605 813406 946045 1041059 1094403 1105664 1077861 
1953.172 1017577 933792 837507 738024 641252 544501 437954 304741 130667 
1957.512 -86438 -327505 -553350 -703627 -715271 -544415 -183192 331234 
1961.370 927749 1517536 2025561 2404921 2640810 2745598 2741197 2643444 
1965.227 2448870 2136194 1681290 1081847 378356 -342801 -971562 -1404267 
1969.084 -1586505 -1520374 -1264342 -910529 -568075 -335882 -272508 -384251 
1972.942 -623764 -911884 -1149685 -1247988 -1147306 -827165 -315122 315053 
1976.799 958830 1512416 1884572 2018703 1910397 1603496 1181841 741343 
1980.657 372851 136367 57391 128479 318534 585276 888436 1203171 1519298 
1984.996 1834491 2141655 2419281 2629642 2731560 2694785 2519550 2242526 
1988.854 1932595 1667054 1513679 1509157 1644470 1864006 2080757 2215383 
1992.711 2212419 2062780 1797126 1468329 1125097 799796 500811 218573 -60829 
1997.051 -340153 -605202 -820220 -939228 -926366 -763995 -463695 -64772 
2000.908 370032 773739 1082711 1251850 1265906 1142073 926188 680078 472682 
2005.248 362770 381208 525326 758437 1027973 1279930 1483523 1636987 1764954 
2009.587 1898882 2062680 2253450 2441806 2579043 2619509 2540713 2356279 
2013.445 2114452 1882475 1725897 1683086 1756037 1914091 2113886 2315638 
2017.302 2501954 2684616 2892804 3151153 3461487 3791229 4080682 4257652 
2021.160 4257283 4050714 3652372 3122785 2543446 2011214 1612642 1403902 
2025.017 1410517 1617863 1976396 2415849 2864486 3262006 3570583 3783274 
2028.874 3920133 4017873 4111654 4216564 4318252 4376084 4334785 4148785 
2032.732 3807373 3340866 2815727 2315438 1918384 1671145 1588930 1650224 
2036.589 1813296 2023331 2231668 2398357 2493189 2494089 2385963 2162966 
2040.447 1837819 1441533 1024020 638697 335180 145416 79363 125993 260478 
2044.786 457855 698463 972545 1277371 1606023 1940516 2248055 2486058 
2048.644 2617642 2622942 2508019 2300348 2044469 1786180 1560996 1392700 
2052.501 1288471 1240818 1233441 1246533 1259061 1252348 1214335 1137787 
2056.358 1024220 883589 734174 598083 498821 456329 482036 578441 739053 
2060.698 952056 1202573 1473615 1747288 1999463 2203493 2331861 2361710 
2064.555 2282428 2099369 1836654 1530703 1225034 965106 786817 719704 781506 
2068.895 978157 1300434 1721506 2194802 2654811 3030818 3263408 3315858 
2072.752 3188835 2921324 2582409 2246323 1979192 1816790 1756603 1766717 
2076.610 1800553 1818420 1799089 1747221 1685514 1644370 1645335 1693597 
2080.467 1774735 1864273 1932395 1955926 1925040 1842544 1721440 1581181 
2084.325 1444658 1333636 1267535 1262583 1324829 1450509 1621688 1810834 
2088.182 1984285 2109923 2166962 2148415 2062880 1928701 1769046 1603862 
2092.040 1447251 1310105 1200978 1130778 1110647 1149515 1247497 1393199 
2095.897 1565918 1738206 1885936 1996101 2069038 2115384 2149746 2182047 
2099.754 2212252 2231202 2226606 2191038 2127370 2049962 1976962 1924308 
2103.612 1895853 1881777 1861744 1816290 1733482 1617231 1485052 1362585 
2107.469 1274048 1232644 1239455 1285014 1357134 1444159 1540047 1642474 
2111.327 1747155 1844440 1918350 1949835 1925972 1844074 1717614 1568977 
2115.184 1427172 1314858 1241748 1204367 1189715 1181342 1167222 1144133 
2119.042 1115862 1089952 1073543 1070421 1081183 1106827 1150843 1218622 
2122.899 1315789 1441899 1586635 1728259 1838251 1890030 1867800 1772772 
2126.756 1622419 1449279 1289800 1172937 1116859 1124333 1184299 1277936 
2130.614 1386218 1491868 1584573 1662663 1730754 1800120 1883873 1992007 
2134.471 2127004 2279663 2426378 2536047 2577009 2525816 2376768 2144352 
2138.329 1861311 1569675 1315689 1139515 1066136 1107458 1257698 1497919 
2142.186 1793067 2100468 2372437 2565077 2652111 2631876 2532081 2401223 
2146.043 2299349 2279497 2370438 2571176 2850278 3159296 3440747 3645422 
2149.901 3737084 3693807 3509351 3195577 2783712 2318103 1860379 1475211 
2153.758 1211611 1099419 1136492 1294818 1538916 1853292 2254649 2793016 
2157.616 3519873 4445907 5500309 6536523 7358401 7798007 7780870 7340237 
2161.473 6607401 5764612 4998060 4427262 4092355 3952064 3921002 3905355 
2165.331 3843909 3723917 3574024 3442984 3367345 3362203 3412827 3485301 
2169.188 3542655 3560193 3531965 3469770 3397699 3339965 3314722 3327844 
2173.045 3372521 3430160 3479189 3496324 3468735 3398634 3304907 3215572 
2176.903 3162400 3165805 3222114 3303471 3365108 3362971 3271721 3102060 
2180.760 2899175 2737429 2688316 2796084 3059247 3430627 3827830 4160259 
2184.618 4361358 4400484 4292954 4092020 3870686 3697483 3618926 3652539 
2188.475 3782004 3965071 4140054 4246375 4231486 4065330 3746342 3303872 
2192.333 2792049 2276765 1828735 1503472 1331708 1321040 1456261 1707136 
2196.190 2033783 2397958 2760436 3085508 3346075 3520407 3595505 3572487 
2200.047 3465161 3297795 3103662 2918389 2769607 2675348 2639143 2650211 
2203.905 2686183 2719924 2727859 2697018 2632543 2556544 2505986 2519317 
2207.762 2622942 2819195 3082772 3359932 3585015 3703030 3680942 3521576 
2211.620 3262140 2963757 2690350 2489924 2385697 2371004 2419148 2491457 
2215.477 2554111 2581909 2563144 2497022 2394059 2269871 2144785 2040941 
2219.334 1979758 1973034 2022465 2115117 2226573 2326864 2394026 2417982 
2223.192 2406553 2382332 2374902 2410152 2501987 2649777 2839672 3051238 
2227.049 3261272 3450365 3604459 3713992 3774450 3786315 3756034 3696046 
2230.907 3626009 3567609 3537844 3545561 3586852 3645656 3699521 3728028 
2234.764 3716698 3661761 3567943 3444921 3301735 3143643 2971263 2783112 
2238.622 2580009 2367173 2154841 1958522 1795595 1681756 1629171 1643738 
2242.479 1722903 1855355 2022199 2200430 2364075 2493023 2574343 2605442 
2246.336 2592942 2549545 2490523 2427978 2369905 2320568 2281162 2252251 
2250.194 2232468 2218680 2203627 2175887 2124041 2039809 1923709 1789207 
2254.051 1661699 1568944 1536755 1578321 1689672 1852227 2038610 2221144 
2257.909 2376635 2491990 2561744 2586275 2569210 2515284 2432742 2335259 
2261.766 2241094 2171391 2143520 2166030 2233900 2330628 2431043 2510619 
2265.624 2553378 2554478 2520283 2463864 2400123 2339289 2288557 2251985 
2269.481 2233367 2237897 2271270 2335692 2427378 2534547 2638277 2715189 
2273.338 2746798 2720457 2634843 2498521 2328263 2145251 1970837 1825441 
2277.196 1724400 1676933 1684450 1739337 1826905 1927137 2020501 2092044 
2281.053 2135362 2152943 2154242 2150612 2149413 2153076 2156739 2151778 
2284.911 2129701 2085851 2021400 1943279 1862010 1789939 1738539 1717381 
2288.768 1733316 1788974 1882442 2005155 2143253 2278464 2390927 2465831 
2292.625 2495356 2482592 2438407 2380033 2324432 2283560 2263442 2264308 
2296.483 2282628 2315072 2360011 2416916 2484558 2558744 2630843 2688350 
2300.340 2719757 2715756 2674647 2602042 2510952 2417015 2336358 2282095 
2304.198 2262143 2279730 2333793 2419748 2530482 2656745 2788314 2914286 
2308.055 3025079 3112839 3172947 3203956 3206058 3182159 3137169 3077800 
2311.913 3014102 2957986 2921891 2916154 2946176 3009331 3096454 3194009 
2315.770 3287612 3367145 3430494 3482462 3532466 3590962 3664368 3752057 
2319.627 3846750 3936081 4007941 4052320 4065530 4048908 4008543 3952298 
2323.485 3888104 3822549 3759510 3700624 3645255 3591129 3535105 3475181 
2327.342 3412293 3351918 3304039 3281503 3297161 3358296 3463424 3600417 
2331.200 3750052 3890210 4001955 4075363 4109881 4113160 4095833 4069410 
2335.057 4042253 4019043 4003293 3998678 4009646 4041484 4096536 4172168 
2338.915 4257685 4338399 4395497 4414676 4390276 4327589 4240754 4149019 
2342.772 4069343 4010549 3972327 3945510 3918461 3881718 3832142 3773581 
2346.629 3714058 3661527 3621298 3596340 3587821 3596942 3626377 3680240 
2350.487 3762451 3873929 4009880 4158185 4299780 4417120 4498098 4543130 
2354.344 4566333 4592754 4647072 4746215 4891018 5065301 5240694 5385595 
2358.202 5476854 5505846 5480712 5419178 5342992 5267759 5197837 5127490 
2362.059 5046864 4947183 4827455 4696205 4569314 4464955 4397037 4371666 
2365.917 4385389 4426760 4479049 4525150 4551233 4546545 4506535 4431011 
2369.774 4323607 4190635 4041350 3886332 3735347 3597877 3481327 3388316 
2373.631 3319096 3270018 3236101 3211232 3190971 3170744 3146847 3115409 
2377.489 3070926 3006828 2917688 2800152 2655611 2492123 2323599 2166230 
2381.346 2035814 1943778 1892991 1878449 1888432 1909565 1929533 1941348 
2385.204 1944310 1942513 1942047 1947638 1960586 1979092 1998930 2016540 
2389.061 2030920 2043770 2058551 2078261 2102931 2128836 2149913 2158537 
2392.918 2149480 2121743 2078527 2026793 1974499 1929067 1894822 1873224 
2396.776 1862975 1861744 1866502 1875021 1885703 1897917 1911661 1927403 
2400.633 1945808 1967609 1992839 2020368 2048597 2075064 2097704 2115883 
2404.491 2129868 2140756 2149280 2153576 2149047 2128969 2086051 2016706 
2408.348 1923243 1816024 1710762 1627807 1585305 1594084 1655346 1759963 
2412.206 1890362 2024296 2141455 2226240 2270870 2276066 2249687 2204592 
2416.063 2154775 2113653 2090712 2089614 2107959 2136893 2164465 2176819 
2419.920 2163532 2120378 2050695 1964846 1877983 1805377 1756736 1735279 
2423.778 1735711 1747953 1760629 1766617 1765186 1762824 1769711 1795129 
2427.635 1843010 1909332 1981755 2043970 2082056 2088149 2064877 2023930 
2431.493 1983752 1961784 1970405 2012745 2081723 2163333 2239761 2296284 
2435.350 2323666 2320734 2292720 2251352 2209555 2178484 2165597 2173889 
2439.208 2199930 2236164 2273601 2302846 2316770 2313173 2293286 2261477 
2443.065 2223775 2185544 2149613 2117015 2086950 2057952 2030188 2004889 
2446.922 1984551 1971936 1969040 1975897 1990110 2008318 2026160 2039542 
2450.780 2045635 2042638 2031187 2013710 1995036 1981755 1981023 1998897 
2454.637 2037945 2096039 2165464 2234766 2291554 2324998 2329096 2304279 
2458.495 2256614 2195468 2132332 2077761 2039176 2021466 2025894 2049962 
2462.352 2087416 2129169 2164465 2182447 2176120 2143786 2090979 2028757 
2466.209 1971037 1930565 1914789 1924241 1952598 1990875 2028457 2057686 
2470.067 2075164 2080791 2076130 2063612 2045102 2022731 1998964 1977694 
2473.924 1962916 1958189 1964946 1981056 2002093 2023231 2040807 2054357 
2477.782 2066874 2082455 2104496 2133164 2165397 2194935 2216215 2225341 
2481.639 2222343 2210720 2195767 2182314 2173556 2170459 2172557 2179217 
2485.497 2190373 2206124 2226639 2250053 2273068 2290655 2297850 2291888 
2489.354 2272269 2242060 2205825 2169826 2139657 2119812 2113086 2120878 
2493.211 2141788 2171757 2203627 2227672 2233767 2214983 2169726 2103830 
2497.069 2030687 1967709 1930731 1930498 1968973 2038810 2126571 2217181 
2500.926 2298849 2365174 2416449 2457133 2493223 2528915 2564977 2599275 
2504.784 2627609 2645877 2650911 2641410 2617509 2580243 2530915 2471462 
2508.641 2404788 2335292 2269005 2212652 2172956 2154741 2159270 2183745 
2512.499 2221278 2262676 2297650 2317470 2317204 2296251 2258713 2210953 
2516.356 2160702 2113752 2073000 2038644 2009150 1983519 1962583 1950002 
2520.213 1951599 1972701 2016040 2079692 2157039 2238896 2314905 2377534 
2524.071 2424346 2456767 2480026 2500587 2524083 2553445 2589375 2630576 
2527.928 2674847 2719190 2760603 2795284 2818561 2826132 2814359 2781878 
2531.786 2730727 2666213 2596042 2527848 2468197 2419914 2382632 2352815 
2535.643 2326164 2299016 2269904 2239662 2211486 2189540 2177219 2176686 
2539.500 2187908 2208522 2235165 2264641 2294652 2325565 2359910 2401522 
2543.358 2454034 2518717 2592709 2668446 2735828 2783712 2803654 2794050 
2547.215 2760470 2714989 2673381 2650911 2656878 2693318 2752867 2823264 
2551.073 2889102 2937603 2962056 2962156 2943574 2915220 2886233 2862852 
2554.930 2847677 2839906 2837038 2836404 2836937 2839672 2846576 2860150 
2558.788 2881497 2909816 2942006 2974666 3004159 3028749 3048736 3066254 
2562.645 3084040 3104296 3127123 3150385 3169977 3181292 3181158 3168775 
2566.502 3146880 3120448 3095987 3079034 3072728 3077066 3089579 3105864 
2570.360 3122084 3136501 3149317 3163235 3181725 3207160 3239172 3274559 
2574.217 3306810 3329146 3336091 3326475 3303504 3275827 3254862 3250823 
2578.075 3270720 3314522 3375226 3440413 3496391 3532132 3542755 3531598 
2581.932 3508115 3484700 3472342 3476684 3496925 3526921 3558088 3583077 
2585.790 3598980 3606865 3610506 3613981 3619294 3625542 3630921 3634897 
2589.647 3640377 3654577 3686556 3742866 3823852 3921504 4020314 4100315 
2593.504 4145607 4147848 4110149 4046166 3975704 3919130 3890611 3895994 
2597.362 3932069 3989783 4056968 4122492 4178223 4219374 4243933 4252867 
2601.219 4248785 4235635 4218872 4204352 4196423 4197193 4205657 4217936 
2605.077 4229847 4237910 4241959 4245305 4252465 4268359 4294560 4329430 
2608.934 4368085 4404434 4433756 4453741 4464453 4467834 4465223 4456318 
2612.792 4439681 4413940 4378829 4337763 4296534 4261934 4240252 4234564 
2616.649 4244569 4266552 4296100 4328962 4362429 4395564 4427697 4458294 
2620.506 4485845 4508878 4526389 4539346 4550128 4561746 4576982 4596002 
2624.364 4616429 4634379 4644928 4644995 4633542 4612477 4584248 4552706 
2628.221 4520262 4489193 4461373 4439447 4426291 4425287 4438275 4464754 
2632.079 4500676 4540585 4577250 4605579 4623361 4632068 4635551 4638599 
2635.936 4644895 4655478 4669377 4683611 4694999 4701363 4702234 4698282 
2639.793 4691449 4684080 4677683 4673697 4672793 4674434 4678386 4683243 
2643.651 4688066 4692152 4695703 4699789 4706655 4718412 4736467 4760653 
2647.508 4789295 4819214 4846955 4870209 4888103 4901306 4911693 4921177 
2651.366 4930326 4938738 4944837 4946781 4943999 4936828 4927410 4919200 
2655.223 4916117 4920976 4936191 4962131 4997758 5040026 5084946 5127792 
2659.081 5164037 5190795 5207394 5216247 5221680 5229795 5245389 5271347 
2662.938 5306967 5348359 5389990 5425921 5452058 5467257 5472962 5472089 
2666.795 5468130 5463768 5459808 5456688 5454105 5452393 5452360 5455313 
2670.653 5461956 5471921 5483766 5494705 5502121 5504269 5500443 5491350 
2674.510 5478498 5463633 5448031 5432162 5416762 5402101 5389353 5379456 
2678.368 5373015 5370164 5369862 5370633 5370935 5370365 5369694 5371170 
2682.225 5377644 5390929 5411159 5436322 5462459 5484740 5499437 5504504 
2686.083 5500343 5488967 5473230 5455178 5435752 5414178 5389319 5360435 
2689.940 5328635 5296502 5268061 5247536 5237475 5237944 5246395 5258301 
2693.797 5268128 5271247 5265210 5250118 5228722 5205449 5184893 5170978 
2697.655 5165948 5169033 5177818 5188012 5194953 5195490 5188112 5174633 
2701.512 5159075 5147071 5143718 5151933 5170743 5195959 5220707 5237844 
2705.370 5242505 5234121 5216582 5196764 5183552 5184424 5203437 5241030 
2709.227 5294289 5358154 5427028 5496115 5561487 5620055 5669231 5707133 
2713.084 5732648 5746649 5752659 5756084 5763773 5781938 5813839 5859175 
2716.942 5913249 5969613 6021147 6062977 6093353 6113985 6129241 6143288 
2720.799 6159151 6177971 6198137 6217430 6233765 6246874 6258034 6269968 
2724.657 6285533 6306577 6332902 6362018 6389926 6412456 6425738 6427924 
2728.514 6419181 6401392 6377418 6349645 6319521 6286608 6249160 6204388 
2732.372 6150715 6087842 6017822 5944756 5874153 5811253 5759609 5720192 
2736.229 5691623 5670406 5652615 5635092 5616027 5594915 5572595 5550110 
2740.086 5528330 5507289 5487256 5468398 5451923 5439442 5432631 5432363 
2743.944 5437664 5445918 5452628 5453467 5445045 5426525 5400658 5372176 
2747.801 5347789 5334136 5334975 5351546 5381368 5419211 5457997 5491887 
2751.659 5516148 5528967 5531753 5528330 5523363 5521685 5526685 5539270 
2755.516 5558298 5580483 5601796 5618142 5626902 5627439 5621129 5611294 
2759.374 5602232 5598674 5604111 5620055 5645935 5678966 5714787 5748294 
2763.231 5775156 5792616 5800037 5799601 5795235 5791945 5794967 5807962 
2767.088 5833047 5869787 5915533 5966422 6018057 6066640 6109482 6146212 
2770.946 6178240 6207951 6239042 6274372 6315419 6362119 6412456 6463134 
2774.803 6510725 6552702 6588191 6618166 6645519 6673950 6707262 6748283 
2778.661 6798563 6858174 6926478 7001561 7081507 7163758 7245756 7324938 
2782.518 7399180 7467064 7528350 7584622 7639046 7695062 7757055 7827998 
2786.375 7909412 8001338 8102127 8208849 8318097 8426562 8531099 8629342 
2790.233 8720440 8805031 8885445 8965434 9049667 9142308 9245800 9360455 
2794.090 9483775 9611569 9739197 9863202 9982021 10096429 10208663 10321095 
2797.948 10435253 10551241 10668076 10784533 10900172 11016319 11135317 
2801.323 11259926 11392291 11532828 11680082 11831064 11982983 12133900 
2804.698 12283675 12433844 12587612 12747780 12916815 13095852 13284358 
2808.073 13480841 13682850 13887998 14094063 14299850 14505495 14712677 
2811.449 14924827 15146001 15380093 15629767 15894845 16173083 16460242 
2814.824 16751757 17044124 17336410 17630342 17929862 18239710 18564342 
2818.199 18906726 19268672 19650404 20051902 20472702 20912474 21370236 
2821.574 21844822 22334610 22838886 23358156 23895268 24454464 25041864 
2824.950 25662958 26321694 27020640 27760694 28543022 29370576 30248554 
2828.325 31185482 32191016 33275072 34446552 35712640 37079096 38551820 
2831.700 40137004 41842220 43675560 45644592 47755424 50013356 52422368 
2835.075 54986980 57713064 60607856 63678920 66931904 70368408 73983672 
2838.451 77768088 81706736 85781208 89974776 94270680 98654744 103116248 
2841.826 107645760 112236168 116882128 121579472 126324536 131112960 
2844.719 135937328 140786128 145641360 150477136 155261600 159953056 
2847.612 164501360 168851232 172937648 176691584 180044848 182928048 
2850.505 185281280 187053872 188206784 188717504 188579824 187807536 
2853.398 186432560 184508272 182104544 179298272 176174128 172811296 
2856.291 169279088 165640736 161946800 158241136 154564976 150953296 
2859.184 147440032 144056880 140830432 137786416 134947760 132333856 
2862.077 129962624 127846656 125991416 124393696 123040816 121911320 
2864.970 120976720 120208048 119575912 119053240 118617096 118243808 
2867.864 117907744 117580288 117225944 116806720 116284904 115624448 
2870.757 114799200 113793160 112602648 111236640 109715776 108069952 
2873.650 106333784 104548160 102755416 100996128 99312112 97740440 96312688 
2877.025 95054824 93982976 93104848 92420648 91925216 91611288 91472440 
2880.400 91504712 91706752 92078416 92618560 93322944 94184000 95191360 
2883.775 96333368 97599416 98981176 100471328 102063992 103751544 105524120 
2887.151 107369896 109275352 111228512 113220248 115243928 117296176 
2890.044 119374792 121476896 123599184 125736368 127882200 130030824 
2892.937 132175312 134307632 136420000 138502896 140549520 142556800 
2895.830 144528288 146473520 148407360 150345968 152300944 154278208 
2898.723 156276160 158288464 160307008 162326496 164345520 166367008 
2901.616 168396336 170439184 172501136 174587840 176706720 178867744 
2904.509 181083056 183364704 185721584 188157376 190669824 193253232 
2907.402 195902640 198616192 201397328 204253488 207193072 210222160 
2910.295 213343376 216555040 219854576 223238960 226706912 230256160 
2913.188 233881696 237572000 241307728 245060272 248796352 252478368 
2916.081 256064560 259513104 262776816 265803344 268540256 270932192 
2918.974 272926304 274477952 275547168 276102240 276119168 275581344 
2921.867 274483328 272832608 270651648 267973456 264840784 261299664 
2924.760 257392768 253163792 248656176 243916304 238998192 233958240 
2927.654 228850864 223725520 218616384 213545280 208522784 203553328 
2930.547 198641040 193792848 189018016 184327808 179731936 175237104 
2933.440 170848864 166571920 162412208 158378624 154480272 150725872 
2936.333 147121760 143670448 140373248 137231744 134249984 131436720 
2939.226 128804344 126365752 124134104 122119144 120326408 118758752 
2942.119 117416392 116298288 115402424 114725360 114261040 114000280 
2945.012 113931792 114041040 114312896 114732176 115281384 115942648 
2947.905 116694432 117510704 118362896 119219672 120048312 120818704 
2950.798 121500960 122067664 122494112 122756672 122836112 122718344 
2953.691 122395496 121867144 121139120 120222560 119130384 117877016 
2956.584 116477360 114944848 113292928 111533864 109677392 107731568 
2959.477 105701896 103591600 101404000 99142560 96811696 94416640 91962520 
2962.853 89453544 86894376 84290664 81651192 78988672 76318920 73660176 
2966.228 71029864 68440872 65902656 63419604 60994172 58628776 56327232 
2969.603 54095724 51941412 49870504 47886776 45990156 44177408 42442632 
2972.978 40779828 39183816 37651744 36183000 34779224 33443484 32178954 
2976.354 30988334 29872802 28831396 27859606 26950970 26096270 25284758 
2979.729 24506346 23752738 23018254 22300880 21601438 20923148 20270288 
2983.104 19647074 19056986 18502168 17982938 17497442 17042572 16613375 
2986.479 16203899 15809445 15426198 15053100 14691872 14346389 14020961 
2989.854 13719816 13444750 13194791 12966825 12755902 12557086 12365384 
2993.230 12177652 11991805 11806787 11622359 11438859 11257137 11079162 
2996.605 10907614 10745812 10597007 10463560 10346171 10243570 10152288 
2999.980 10067569 9984190 9897199 9803279 9701043 9591482 9477172 9362385 
3003.838 9251419 9147857 9053592 8968478 8890315 8815716 8741434 8664731 
3007.695 8584324 8499810 8411832 8320292 8225159 8125725 8020879 7910728 
3011.552 7797096 7682988 7573057 7472289 7384384 7312066 7255156 7211695 
3015.410 7178209 7150049 7122327 7090465 7050692 7000719 6940248 6871571 
3019.267 6798731 6727452 6663082 6609386 6567638 6535648 6508572 6480354 
3023.125 6445714 6400821 6344669 6278641 6205733 6129342 6053166 5980564 
3026.982 5914693 5858671 5815115 5785061 5767735 5759576 5754808 5745877 
3030.840 5726605 5693469 5647378 5592834 5536820 5485813 5443368 5409079 
3034.697 5378248 5345340 5304183 5252432 5191466 5126116 5062821 5007679 
3038.554 4964744 4934850 4916519 4906935 4903316 4903550 4906298 4910253 
3042.412 4914039 4915045 4911057 4900166 4881602 4856840 4828125 4797939 
3046.269 4767721 4737472 4706521 4673932 4640441 4608526 4582406 4566401 
3050.127 4562851 4570486 4584014 4595667 4597140 4582942 4551433 4505765 
3053.984 4452334 4398677 4351351 4313267 4284052 4261232 4241390 4222218 
3057.842 4203382 4186152 4172235 4162802 4157148 4153301 4148316 4139284 
3061.699 4124934 4106102 4085364 4065664 4050380 4040815 4036199 4033758 
3065.556 4029377 4019478 4002022 3977410 3948687 3919832 3895225 3876704 
3069.414 3863933 3853470 3840499 3820242 3790828 3753394 3712220 3673356 
3073.271 3642248 3621833 3611609 3608001 3606397 3602521 3595004 3584547 
3077.129 3574692 3569313 3570449 3578099 3589492 3599982 3604827 3600584 
3080.986 3585616 3560260 3526887 3487940 3447126 3407450 3371719 3342235 
3084.844 3320665 3306843 3299965 3297995 3298496 3299030 3298329 3295625 
3088.701 3291118 3284674 3276595 3266947 3256197 3245348 3236034 3229859 
3092.558 3228023 3229825 3232329 3231227 3221981 3201819 3170778 3132596 
3096.416 3093183 3058412 3032720 3017371 3010465 3008330 3007396 3005627 
3100.273 3002724 3000356 2999688 3000956 3002524 3001690 2996218 2985843 
3104.131 2972531 2961155 2955817 2960288 2974967 2996953 3020942 3041195 
3107.988 3053107 3054809 3046934 3032319 3014435 2996786 2981806 2971063 
3111.845 2966092 2967861 2976835 2992849 3014168 3037858 3060381 3077833 
3115.703 3088044 3090247 3086042 3077700 3068023 3058513 3048902 3037992 
3119.560 3023377 3003458 2977502 2946410 2912484 2878929 2849211 2826332 
3123.418 2812692 2809624 2816894 2832535 2853747 2875827 2894005 2904112 
3127.275 2903278 2891136 2869756 2843208 2816027 2792749 2776676 2769106 
3131.133 2770707 2780844 2798785 2823230 2852813 2885533 2918122 2947477 
3134.990 2969562 2981139 2979704 2964124 2934967 2894639 2847010 2797718 
3138.847 2753434 2721424 2708021 2717223 2748832 2798619 2857516 2914019 
3142.705 2957485 2980004 2978536 2955884 2919289 2877628 2838972 2808823 
3146.562 2789481 2779611 2776943 2778877 2783412 2789248 2795951 2803354 
3150.420 2811391 2820395 2831468 2845676 2864486 2888101 2914653 2940672 
3154.277 2961222 2972398 2972131 2962089 2946543 2932466 2926795 2934034 
3158.135 2956051 2991581 3036623 3085475 3132496 3171412 3196078 3201753 
3161.992 3185130 3145779 3087711 3019207 2951881 2896974 2863786 2855981 
3165.849 2871024 2900843 2934868 2963323 2979904 2982740 2975000 2962123 
3169.707 2949045 2940072 2937136 2939871 2947144 2956818 2966359 2972765 
3173.564 2972731 2962289 2938237 2899342 2846843 2784879 2719857 2660879 
3177.422 2616175 2592842 2594909 2622842 2673081 2738696 2810424 2878161 
3181.279 2932532 2967394 2980138 2973465 2953215 2927662 2904779 2889469 
3185.136 2883398 2885333 2891603 2898208 2902844 2904145 2902110 2897074 
3188.994 2888835 2876794 2860784 2841540 2820662 2801220 2786213 2777510 
3192.851 2775075 2776843 2779944 2781111 2778243 2770674 2759136 2745131 
3196.709 2730193 2716423 2705687 2700219 2702119 2713155 2732961 2760036 
3200.566 2790448 2819228 2841240 2853380 2854347 2845008 2827866 2805155 
3204.424 2778043 2747232 2712589 2674247 2633510 2592875 2555111 2522983 
3208.281 2498755 2482959 2475661 2476194 2483292 2495622 2510519 2524083 
3212.138 2531115 2526582 2507086 2471995 2425445 2375269 2331194 2302480 
3215.996 2295552 2311807 2348351 2397258 2449003 2493722 2523283 2532714 
3219.853 2521816 2494356 2456634 2416549 2381532 2355313 2338989 2330095 
3223.711 2324332 2317603 2307910 2296484 2287424 2285192 2293286 2311874 
3227.568 2338090 2366240 2390528 2407986 2418415 2424546 2430710 2440506 
3231.426 2455134 2472828 2490090 2502554 2507219 2503153 2490190 2470163 
3235.283 2445338 2417515 2389262 2363509 2342654 2328663 2322200 2321501 
3239.140 2322600 2321534 2314605 2301681 2285226 2270437 2262843 2265641 
3242.998 2278664 2298050 2317437 2330761 2334626 2329329 2319102 2308643 
3246.855 2303046 2304945 2314339 2329662 2348850 2370405 2393993 2420014 
3250.713 2448470 2478360 2507186 2530715 2543913 2542946 2524649 2488624 
3254.570 2437041 2374803 2309042 2247988 2200296 2172623 2168960 2188374 
3258.427 2226140 2273135 2319469 2356646 2378301 2382998 2372837 2352781 
3262.285 2328563 2305012 2285292 2270803 2261277 2255882 2254583 2257014 
3266.142 2263809 2275100 2290955 2310908 2334426 2360144 2387063 2414417 
3270.000 2440872 2464698 2483825 2495222 2495822 2482959 2456101 2416616 
3273.857 2369739 2322933 2284260 2261011 2257347 2272335 2301148 2337324 
3277.715 2373736 2405954 2433742 2459399 2486658 2517717 2551112 2581909 
3281.572 2603675 2610442 2599442 2573110 2537947 2501221 2469763 2446204 
3285.429 2429177 2414317 2397491 2376035 2351449 2327563 2309375 2301081 
3289.287 2304179 2316970 2335658 2356646 2376468 2393093 2406154 2415250 
3293.144 2420481 2421813 2420414 2417749 2416682 2420314 2430610 2447670 
3297.002 2469563 2492356 2512185 2525216 2530348 2527749 2518550 2503787 
3300.859 2483659 2458366 2427944 2394326 2360544 2331228 2310608 2301514 
3304.717 2303713 2314472 2328863 2341455 2347951 2346285 2336758 2321201 
3308.574 2303413 2288057 2279663 2283227 2302680 2339856 2394293 2461399 
3312.431 2533947 2602308 2658178 2695051 2711288 2709521 2694751 2673047 
3316.289 2648544 2622909 2594975 2562444 2523916 2480160 2434875 2394293 
3320.146 2365174 2352915 2360044 2385697 2424879 2470596 2514518 2549245 
3324.004 2569577 2572976 2560811 2536747 2505753 2473295 2443205 2417215 
3327.861 2394792 2374103 2352915 2329995 2306677 2285459 2270937 2267139 
3331.719 2277132 2301081 2336658 2378734 2421447 2458966 2486758 2502754 
3335.576 2508652 2508319 2507353 2511185 2524049 2546579 2576176 2607675 
3339.433 2634743 2651644 2655311 2645910 2627042 2604042 2582776 2567443 
3343.291 2559478 2558544 2561877 2567177 2572010 2574843 2574943 2571176 
3347.148 2561844 2545446 2520416 2486858 2446537 2404021 2364108 2332394 
3351.006 2312673 2306277 2312040 2327330 2348784 2373070 2398424 2423146 
3354.863 2445871 2465564 2480026 2488024 2488924 2483559 2474161 2463931 
3358.720 2455401 2449936 2446571 2442638 2434875 2421247 2402289 2381133 
3362.578 2363409 2354780 2358711 2375036 2399090 2423579 2439273 2439973 
3366.435 2422680 2390261 2348817 2307510 2274501 2255016 2250753 2259046 
3370.293 2275833 2295352 2313306 2327197 2336824 2342921 2347751 2353248 
3374.150 2360210 2368806 2377901 2385730 2390561 2391427 2388762 2384664 
3378.008 2381799 2383165 2390195 2402056 2414816 2422413 2418915 2400190 
3381.865 2366141 2321234 2274501 2236265 2215549 2217547 2242260 2284626 
3385.722 2336191 2388829 2435841 2473628 2500921 2518284 2526782 2526882 
3389.580 2519017 2504087 2483892 2462498 2444338 2434108 2435041 2448103 
3393.437 2471262 2500688 2532114 2561977 2587609 2608242 2623776 2634510 
3397.295 2640443 2641177 2635376 2621309 2597109 2562110 2516251 2462032 
3401.152 2404121 2349317 2305711 2279863 2275700 2292920 2326631 2368139 
3405.010 2408086 2439040 2457533 2464931 2466164 2467630 2473728 2485858 
3408.867 2500954 2513451 2517584 2509585 2490357 2463631 2436174 2413750 
3412.724 2400556 2396758 2399290 2403655 2405154 2401089 2391427 2378234 
3416.582 2365108 2355413 2351515 2353881 2361476 2370738 2378234 2379900 
3420.439 2373237 2357878 2336125 2313273 2296018 2290489 2301581 2329695 
3424.297 2371637 2419881 2465597 2499754 2516151 2512951 2493089 2463132 
3428.154 2431343 2405854 2392560 2393793 2408819 2434475 2465864 2497388 
3432.011 2524116 2542646 2551778 2552578 2548479 2544146 2543746 2550678 
3435.869 2565343 2585776 2607308 2625109 2634910 2635343 2627242 2613475 
3439.726 2597475 2581509 2566510 2552245 2537947 2523683 2511318 2502887 
3443.584 2500121 2502954 2508086 2509852 2502120 2480826 2446237 2405154 
3447.441 2368872 2349483 2355746 2390028 2447170 2517017 2585942 2642110 
3451.299 2676448 2685183 2669447 2634276 2586376 2531048 2472495 2413550 
3455.156 2355746 2301414 2253583 2215849 2191072 2180882 2184445 2198032 
3459.013 2216815 2235931 2251452 2262743 2271869 2282994 2300781 2328363 
3462.871 2366340 2411984 2459999 2504920 2540813 2564444 2574643 2572410 
3466.728 2560477 2542146 2520150 2497122 2474495 2453068 2434208 2418682 
3470.586 2407120 2400023 2396525 2395859 2396891 2399024 2402356 2407453 
3474.443 2415483 2426312 2439640 2452768 2462732 2465964 2459932 2443038 
3478.301 2415283 2378367 2334559 2287024 2239395 2195068 2157472 2129502 
3482.158 2113153 2109291 2117714 2136893 2164731 2199730 2239895 2283360 
3486.015 2328263 2371471 2408353 2434142 2443805 2434275 2405621 2361843 
3489.873 2309675 2258646 2218114 2194935 2192637 2210654 2244657 2286991 
3493.730 2330029 2366607 2391960 2404421 2404688 2395359 2379433 2359511 
3497.588 2336924 2312607 2286691 2259879 2233933 2211486 2196100 2191205 
3501.445 2199730 2222277 2257147 2300748 2348184 2394826 2437540 2474528 
3505.302 2504787 2527848 2542480 2547345 2540347 2521483 2492389 2457367 
3509.160 2423313 2398057 2386963 2392460 2412251 2441206 2472162 2499055 
3513.017 2517351 2525749 2525349 2519050 2509952 2499854 2489024 2476161 
3516.875 2459166 2436741 2409052 2377901 2346685 2318969 2296984 2281462 
3520.732 2272002 2266540 2262443 2258080 2251918 2243925 2234866 2226373 
3524.590 2220378 2218980 2224108 2236431 2254749 2274967 2290389 2292520 
3528.447 2274067 2231202 2166995 2090313 2013377 1950634 1912793 1904672 
3532.304 1924774 1965778 2018238 2072667 2123708 2170159 2214184 2259146 
3536.162 2307377 2357079 2404388 2442872 2467030 2474394 2465597 2443771 
3540.019 2414483 2383964 2357246 2338790 2331394 2335592 2350116 2371171 
3543.877 2392427 2405687 2403222 2380233 2337457 2281895 2224708 2178018 
3547.734 2150379 2145018 2159437 2187742 2222177 2255748 2283494 2303280 
3551.592 2316004 2324932 2334759 2348750 2368372 2391860 2415849 2434942 
3555.449 2444571 2441772 2426445 2402056 2374536 2351382 2338989 2340489 
3559.306 2353847 2373970 2392660 2403222 2403288 2395292 2385963 2383131 
3563.164 2393360 2419381 2458799 2504087 2543713 2564644 2555145 2510352 
3567.021 2435974 2347285 2261910 2194036 2151378 2134563 2140989 2165863 
3570.879 2202128 2241560 2276399 2300082 2309875 2307010 2297717 2289656 
3574.736 2289723 2301014 2321401 2344986 2363742 2370838 2364108 2345652 
3578.594 2321367 2299349 2287124 2288657 2304845 2332793 2367740 2404488 
3582.451 2438573 2467064 2488591 2503587 2513418 2519850 2525449 2532248 
3586.308 2541646 2553845 2567477 2580342 2590375 2596509 2598042 2595175 
3590.166 2587576 2575043 2557411 2535347 2510119 2484058 2460399 2441239 
3594.023 2428711 2423113 2424379 2432842 2449336 2475594 2512085 2558111 
3597.881 2609675 2659612 2700019 2722958 2723191 2701586 2663279 2617942 
3601.738 2575376 2543979 2528248 2529582 2547246 2578909 2621642 2671414 
3605.595 2722758 2769106 2802354 2816127 2807389 2778643 2736995 2691551 
3609.453 2649377 2613009 2581942 2554778 2531781 2516851 2516651 2538647 
3613.310 2586109 2656112 2738629 2821763 2895573 2953616 2993182 3014536 
3617.168 3018506 3006027 2978303 2937103 2885533 2829667 2776809 2732361 
3621.025 2700052 2680349 2671914 2672714 2681849 2699052 2725692 2764205 
3624.883 2816894 2885033 2969128 3066821 3173214 3278498 3365108 3409888 
3628.740 3396530 3327811 3226921 3121116 3028015 2952748 2895072 2852146 
3632.597 2820762 2798385 2781811 2768206 2754368 2737862 2717823 2694985 
3636.455 2671647 2651944 2640110 2639410 2650778 2671114 2695285 2715789 
3640.312 2726526 2724792 2712789 2697018 2687016 2691684 2715556 2757736 
3644.170 2812258 2870990 2925327 2969996 3003692 3031585 3061649 3100392 
3648.027 3144711 3178922 3179856 3130861 3036257 2920690 2815893 2743064 
3651.885 2706887 2699986 2709755 2723391 2731994 2732361 2727326 2725059 
3655.742 2735795 2765405 2809690 2856615 2891403 2904279 2891737 2857249 
3659.599 2809057 2758503 2716456 2690550 2683749 2694018 2715456 2740630 
3663.457 2763738 2781344 2793716 2803721 2815760 2833736 2859283 2890636 
3667.314 2921891 2943975 2946110 2921191 2872791 2820229 2789982 2803187 
3671.172 2863085 2958920 3073362 3190804 3298129 3381971 3429325 3428356 
3675.029 3378465 3295692 3206859 3130427 3066821 3007295 2943107 2871357 
3678.886 2795951 2726626 2674214 2647377 2647877 2670347 2704987 2741197 
3682.744 2770007 2786813 2792249 2792016 2794350 2807756 2838605 2889235 
3686.601 2957118 3032319 3100258 3142775 3146213 3109369 3045432 2975967 
3690.459 2919956 2888768 2883531 2898108 2923192 2949512 2970663 2982873 
3694.316 2985843 2982406 2977569 2976701 2984842 3003959 3032086 3063785 
3698.174 3091949 3109803 3112873 3100725 3076865 3048802 3025179 3012066 
3702.031 3009331 3011966 3012200 3004359 2987978 2966493 2946210 2933733 
3705.888 2933600 2947144 2971897 3002991 3034421 3061315 3079735 3086943 
3709.746 3080336 3056410 3012600 2950613 2879329 2813625 2769907 2758703 
3713.603 2781578 2832435 2900243 2972431 3036991 3085942 3114642 3123185 
3717.461 3116010 3100725 3085241 3076098 3076765 3088011 3108468 3135166 
3721.318 3164136 3190838 3209864 3216606 3207160 3180290 3136601 3079502 
3725.176 3014769 2949913 2894272 2856115 2841473 2852779 2889836 2949679 
3729.033 3028549 3121516 3221113 3317126 3397766 3450799 3468301 3449363 
3732.890 3401373 3333120 3253326 3166172 3074363 2983441 2903912 2847443 
3736.748 2821463 2824398 2848911 2884332 2921858 2955250 2983207 3009264 
3740.605 3040794 3086676 3154790 3248720 3365208 3491948 3602087 3663231 
3744.463 3656549 3595672 3516232 3451868 3419272 3419974 3448862 3497426 
3748.320 3556084 3612678 3653140 3663399 3632324 3556852 3443552 3309347 
3752.177 3174583 3057445 2968761 2911183 2881730 2874292 2882864 2901810 
3756.035 2926595 2954083 2981005 3003959 3019440 3024345 3017305 3000723 
3759.892 2980505 2964658 2960488 2971664 2997219 3032820 3071460 3105664 
3763.750 3127557 3131161 3114908 3083339 3045699 3013368 2994851 2994017 
3767.607 3010165 3037925 3068790 3091081 3093517 3069758 3021242 2956751 
3771.465 2888635 2828633 2783812 2758102 2751167 2760170 2780044 2805388 
3775.322 2831835 2855648 2874926 2888034 2892938 2887701 2870223 2840773 
3779.179 2804088 2767939 2741130 2728760 2731494 2745798 2766005 2786213 
3783.037 2801853 2811224 2815059 2816460 2819629 2827266 2840172 2856348 
3786.894 2873158 2887934 2898308 2902711 2900376 2890769 2874292 2852112 
3790.752 2827266 2803954 2787314 2781811 2790148 2812525 2846276 2886867 
3794.609 2928396 2965258 2993583 3012400 3024545 3035522 3050905 3073261 
3798.467 3101927 3131996 3155425 3159997 3133264 3069758 2979771 2890303 
3802.324 2830234 2816127 2848544 2917822 3011032 3114908 3214103 3291185 
3806.181 3331283 3326408 3282271 3215705 3146380 3086876 3041528 3009431 
3810.039 2988578 2977769 2977636 2989412 3014769 3053007 3102060 3157127 
3813.896 3211566 3256598 3282170 3280868 3251657 3203855 3151253 3106198 
3817.754 3074796 3057712 3051205 3049303 3044298 3027715 2994684 2949712 
3821.611 2905546 2875059 2864686 2873725 2896907 2928196 2961922 2994183 
3825.469 3022910 3048169 3071293 3093384 3113874 3129426 3135433 3127924 
3829.326 3104697 3067589 3021943 2976535 2940939 2921524 2919122 2929363 
3833.183 2946043 2963824 2980838 2999054 3022510 3054842 3096654 3143877 
3837.041 3189169 3223850 3242911 3246850 3243045 3240240 3244346 3255930 
3840.898 3270452 3280101 3276462 3253560 3208929 3145579 3071059 2995384 
3844.756 2928096 2875193 2839506 2819895 2814859 2822230 2840740 2870323 
3848.613 2911584 2965292 3031418 3108902 3195511 3287145 3376728 3454273 
3852.470 3505977 3520374 3497059 3450165 3396831 3347010 3303571 3266513 
3856.328 3235901 3213669 3201819 3201385 3211099 3226754 3241976 3249554 
3860.185 3243278 3219444 3177854 3122751 3061415 3002224 2952715 2919523 
3864.043 2907314 2918322 2951414 3002024 3062784 3126222 3185631 3234599 
3867.900 3268015 3281002 3271254 3242110 3203789 3170210 3150185 3144945 
3871.758 3150318 3160665 3171645 3180757 3188000 3194743 3202687 3213002 
3875.615 3225486 3238638 3250789 3259669 3262807 3257132 3239206 3206559 
3879.472 3159463 3102861 3046267 3001023 2974900 2970363 2983874 3010298 
3883.330 3042830 3074997 3101493 3118379 3124320 3122150 3116644 3111571 
3887.187 3108134 3104530 3098056 3085308 3064185 3033754 2996319 2957018 
3891.045 2922658 2899475 2890002 2893338 2906313 2926228 2951414 2981439 
3894.902 3016304 3054842 3094185 3129893 3156025 3166639 3159163 3134398 
3898.760 3098890 3062917 3037358 3028048 3034221 3048636 3061983 3065787 
3902.617 3056277 3035589 3010932 2991114 2981939 2984542 2995284 3008797 
3906.474 3020541 3028782 3034254 3039693 3048169 3062049 3081904 3106799 
3910.332 3133431 3157594 3175217 3183060 3179489 3165137 3142308 3114208 
3914.189 3085108 3060014 3043397 3039960 3051639 3077900 3113740 3151787 
3918.047 3184262 3204089 3208161 3197079 3175184 3149017 3125888 3111338 
3921.904 3107934 3114408 3125888 3135834 3136501 3122885 3094552 3056410 
3925.761 3015536 2979537 2953682 2940338 2938804 2947277 2962856 2982373 
3929.619 3003025 3022309 3037691 3047801 3052106 3051872 3050571 3052406 
3933.476 3061182 3078767 3104029 3133264 3161299 3182693 3193541 3193474 
3937.334 3185831 3176318 3171912 3177920 3196112 3224317 3256665 3285743 
3941.191 3304239 3307377 3295057 3272155 3247484 3229358 3224050 3232796 
3945.049 3252792 3277697 3300900 3314722 3314422 3298363 3269084 3232629 
3948.906 3196612 3168074 3151520 3148182 3156993 3175284 3199683 3226220 
3952.763 3251591 3272188 3285108 3288981 3284374 3274659 3264377 3258902 
3956.621 3261672 3272322 3286611 3298763 3301801 3292253 3271387 3245047 
3960.478 3221547 3209129 3212434 3230259 3257366 3285676 3308512 3322335 
3964.336 3327844 3328011 3326642 3326442 3327610 3329313 3330415 3330749 
3968.193 3331016 3332886 3336425 3340232 3340966 3334489 3318061 3292387 
3972.051 3261138 3231327 3209597 3201285 3207994 3228290 3257833 3291652 
3975.908 3325607 3356726 3381837 3398167 3402107 3390854 3363138 3321767 
3979.765 3273123 3226821 3193575 3181292 3192907 3224952 3268817 3312819 
3983.623 3346810 3364073 3362971 3346509 3321600 3296159 3276929 3268950 
3987.480 3274058 3291018 3316025 3343470 3367779 3383774 3389484 3385811 
3991.338 3376728 3368246 3366644 3376528 3398868 3431462 3469536 3506344 
3995.195 3535907 3554213 3559491 3553144 3537945 3517601 3495422 3474312 
3999.052 3455676 3440079 3427488 3417169 
##END=
