##TITLE=mb_0 31 12:45:09 2026 (GMT+02:00)
##JCAMP-DX=5.01  $$ Nicolet v. 970
##DATATYPE=INFRARED SPECTRUM
##ORIGIN=Vojna akademija
##OWNER=Nicolet
##LONGDATE=2026/08/31
##TIME=12:45:38
##SPECTROMETER/DATA SYSTEM=Nicolet iS20
##DATA PROCESSING=
Ratio against background
%Transmittance->Absorbance
Truncated
ElementMultiply or ElementDivide
##COMMENTS=
Number of sample scans: 8
Collection length: 11,90 sec
Sample gain: 8,0
Background collected on: Mon Aug 31 12:42:55 2026 (GMT+02:00);
Number of background scans: 8
Background gain: 8,0
Sample spacing:  1,000
Number of scan points: 12415
Resolution points: 8286
Number of FFT points: 65536
Apodization: N-B strong;
Phase correction: Mertz;
Laser frequency: 15798,00 cm-1
Number of rejected sample scans: 0
Number of rejected background scans: 0
Bench serial number: BER2010005;
##RESOLUTION= 4,000
##XUNITS=1/CM
##YUNITS=ABSORBANCE
##FIRSTX=400.156891
##LASTX=4000.123047
##FIRSTY=0.009020
##MAXX=4000.123047
##MINX=400.156891
##MAXY=0.231723
##MINY=-0.008579
##XFACTOR=1.000000
##YFACTOR=1.000000E-009
##NPOINTS=7468
##DELTAX=0.482117
##ZPD=6100
##XYDATA=(X++(Y..Y))
400.157 9020098 6561044 3787886 835183 -1986078 -4290928 -5778693 -6265526 
404.014 -5764732 -4468910 -2723904 -932384 534681 1407326 1581181 1076798 
407.871 14247 -1428838 -3015407 -4471697 -5554766 -6085928 -6020773 -5438194 
411.728 -4512361 -3435562 -2368775 -1410938 -589551 99413 635810 942990 
415.585 871736 233989 -1129758 -3225585 -5738769 -7906174 -8579057 -6933095 
419.442 -3175558 1495924 5806720 8964216 10751892 11322089 10970169 10039526 
423.298 8849530 7684809 6734519 6083675 5732514 5624989 5689541 5846849 
427.155 6019636 6119529 6060860 5785397 5281979 4604005 3852968 3162200 
431.012 2641010 2336591 2215882 2184278 2126938 1962583 1687011 1382230 
434.869 1198752 1294652 1778993 2637976 3731236 4826383 5698438 6187919 
438.726 6226438 5840973 5133592 4256681 3366911 2617175 2121444 1936023 
442.583 2062280 2448070 3009331 3642682 4256414 4775761 5153106 5377376 
446.440 5475881 5513195 5567461 5705555 5946502 6253060 6537061 6693802 
450.297 6637007 6324564 5782509 5104357 4423815 3851297 3440680 3170978 
454.154 2976835 2790015 2582576 2382465 2273601 2363642 2729626 3366076 
458.011 4162367 4944301 5556385 5930312 6071512 6026590 5846782 5571488 
461.868 5229460 4849469 4473191 4150190 3927088 3828633 3844377 3926620 
465.725 3999681 3989983 3847887 3577264 3235901 2925294 2751333 2793950 
469.582 3100559 3678903 4502919 5509034 6604171 7660359 8539547 9145083 
473.439 9453060 9529497 9494274 9481709 9580879 9808396 10094292 10303859 
477.296 10278446 9896827 9140582 8108170 6991830 5998269 5312938 5036774 
481.152 5168463 5614919 6230673 6865209 7391462 7738537 7878403 7819092 
485.009 7591871 7246227 6846156 6456980 6138617 5925374 5812764 5752088 
488.866 5662551 5456822 5068989 4487686 3765526 3010765 2350916 1908766 
492.723 1762225 1925339 2355347 2970897 3675495 4359116 4913805 5235060 
496.580 5238179 4896681 4259324 3457112 2659245 2044869 1743529 1798057 
500.437 2149880 2647844 3102627 3345006 3311617 3065320 2762270 2564777 
504.294 2587376 2853146 3298096 3795908 4204720 4417923 4386326 4133865 
508.151 3733241 3274358 2824231 2418282 2067108 1774568 1555077 1443229 
512.008 1484154 1724334 2191605 2886967 3780500 4815729 5914458 6973311 
515.865 7883734 8538432 8849801 8770713 8303371 7502763 6465690 5327025 
519.722 4232992 3311651 2664646 2340156 2334992 2600208 3058379 3616086 
523.579 4179528 4676946 5059167 5306095 5422365 5427162 5341382 5179964 
527.436 4952747 4666899 4337194 3992190 3672822 3432664 3326542 3391621 
531.293 3638272 4039042 4534491 5038618 5461419 5727780 5791139 5653084 
535.150 5366876 5030540 4753049 4629925 4710407 4982575 5373451 5772704 
539.007 6073595 6196927 6121781 5884599 5564877 5248475 5005032 4866356 
542.863 4822698 4833754 4848832 4827724 4747186 4605110 4413505 4192642 
546.720 3964402 3749350 3568344 3441214 3383407 3401373 3487606 3619327 
550.577 3765894 3901678 4013626 4105500 4191572 4285826 4390041 4491101 
554.434 4565095 4592720 4571323 4522070 4480890 4487016 4561077 4694530 
558.291 4848832 4972855 5024674 4987938 4880094 4743937 4633274 4588735 
562.148 4627882 4741960 4906399 5088935 5261521 5402168 5488867 5497960 
566.005 5405657 5194819 4869003 4462411 4042287 3688594 3477051 3449430 
569.862 3597209 3864635 4169459 4434727 4605010 4664186 4631097 4546645 
573.719 4454377 4388702 4368353 4396802 4466462 4564291 4675138 4781255 
577.576 4863809 4906968 4900233 4844677 4755628 4660803 4590510 4566769 
581.433 4592586 4649550 4704143 4721058 4677516 4569347 4413003 4236974 
585.290 4072420 3938656 3837558 3754196 3666172 3550371 3394126 3200584 
589.147 2990880 2801653 2675348 2655445 2769507 3019340 3374057 3776221 
593.004 4157148 4453774 4630126 4679190 4620146 4485477 4310924 4122258 
596.861 3929495 3732673 3528324 3318662 3115342 2934634 2788047 2672814 
600.717 2571110 2455767 2306411 2125006 1940982 1805810 1772805 1879613 
604.574 2126638 2474661 2852246 3183027 3404311 3483231 3421911 3250022 
608.431 3009931 2738529 2462698 2194335 1935723 1685481 1443727 1212574 
612.288 997219 805871 650676 550406 526520 601965 788975 1082412 1452703 
616.627 1852193 2229604 2542713 2775709 2940372 3068356 3191639 3328779 
620.484 3472676 3594637 3653775 3615852 3469536 3231628 2942707 2652278 
624.341 2407220 2234632 2140490 2113752 2136960 2195368 2282594 2401589 
628.198 2557778 2752434 2979070 3219844 3450566 3645255 3780767 3842338 
632.055 3825423 3736583 3591229 3415265 3241242 3100158 3019540 3013101 
635.912 3077366 3192774 3329547 3457713 3554080 3611575 3637002 3647494 
639.769 3659389 3681075 3707508 3724385 3713624 3664602 3582142 3486871 
643.626 3407183 3368614 3381871 3435069 3496691 3524984 3487773 3373522 
647.483 3200517 3008230 2848310 2761304 2760103 2826232 2918289 2988312 
651.340 3001657 2952848 2867088 2791849 2775642 2854047 3032086 3285876 
655.197 3564268 3808175 3966041 4004563 3920334 3738421 3509685 3293855 
659.054 3151954 3127090 3230894 3437040 3685720 3900541 4003760 3946447 
662.911 3722480 3372087 2963457 2569143 2242926 2002992 1834857 1699485 
666.767 1555010 1382363 1225001 1188120 1374485 1795628 2377068 3018506 
670.624 3641112 4188260 4620816 4918731 5075492 5102748 5028394 4891185 
674.481 4731375 4582206 4470747 4412065 4408350 4446945 4503019 4542895 
678.338 4533453 4454812 4304298 4099780 3872659 3658787 3485235 3363238 
682.195 3290283 3256898 3253694 3277497 3329180 3409488 3512324 3623737 
686.052 3722279 3788321 3811518 3794605 3753093 3706539 3671285 3652105 
689.909 3643952 3638205 3632391 3636400 3672120 3763888 3928692 4164909 
693.766 4451632 4750771 5022897 5241767 5403375 5527826 5652312 5817432 
697.623 6049437 6355260 6718198 7106666 7481660 7810388 8072826 8262372 
701.480 8384976 8454366 8489808 8512042 8541811 8597538 8690827 8825928 
705.337 8999700 9203865 9429256 9669940 9925811 10201268 10501475 10829406 
709.194 11182878 11556748 11946948 12356145 12795792 13286920 13852010 
712.569 14506831 15254572 16083332 16971728 17895988 18842980 19814308 
715.943 20825596 21897368 23044668 24265392 25538120 26820192 28056186 
719.318 29190160 30164974 30933608 31460940 31726166 31729660 31496886 
722.693 31077518 30532448 29926328 29310560 28711556 28131406 27553550 
726.068 26954636 26316766 25638318 24933382 24229166 23554876 22935356 
729.443 22385262 21907822 21496282 21137798 20816976 20516120 20217554 
732.817 19906084 19571056 19212876 18847098 18505280 18226408 18049596 
736.192 17999482 18073532 18238294 18434024 18594324 18658826 18596190 
739.567 18409410 18133120 17817236 17509724 17240762 17012316 16803278 
742.942 16581774 16324466 16026361 15706474 15398081 15138008 14947906 
746.317 14826282 14747708 14674872 14570216 14408586 14185014 13914340 
749.692 13624415 13343840 13097730 12901079 12758119 12664738 12609715 
753.066 12576322 12543308 12489595 12397908 12260465 12083747 11889054 
756.441 11708470 11572435 11501900 11497817 11540313 11592990 11616675 
759.816 11581998 11479445 11323144 11147249 10995316 10903774 10895110 
763.191 10970169 11109992 11280397 11444166 11570972 11642166 11655645 
766.566 11621576 11558007 11483051 11410149 11344945 11286178 11228370 
769.940 11165845 11096396 11022844 10950936 10886956 10835521 10795606 
773.315 10763134 10731140 10692560 10640299 10567503 10467430 10333107 
776.690 10159072 9944761 9698062 9436298 9184067 8969290 8813247 8725071 
780.547 8699650 8721285 8769360 8826266 8882638 8935026 8981535 9017595 
784.404 9029774 9000546 8912704 8757696 8541035 8282702 8011463 7752839 
788.261 7523698 7328173 7161367 7018330 6901363 6824008 6807044 6868979 
792.118 7015434 7233155 7491537 7748015 7959219 8095308 8141660 8101992 
795.975 7991280 7829786 7636685 7427660 7219107 7028029 6875408 6785639 
799.832 6780692 6879044 7089590 7409190 7820542 8291787 8781295 9239200 
803.689 9616922 9876929 9996193 9975172 9837951 9629455 9401828 9206471 
807.546 9082349 9047941 9104376 9239301 9434605 9669838 9925641 10185155 
811.402 10428974 10638363 10795131 10884713 10901871 10849993 10740480 
814.777 10585361 10393611 10167585 9905403 9606928 9281340 8949705 8646647 
818.634 8407678 8262001 8222221 8280406 8408589 8566920 8718343 8833604 
822.491 8901272 8926841 8927213 8922140 8926672 8945579 8971421 8987015 
826.348 8971015 8905264 8779503 8595240 8366026 8114820 7867741 7645790 
830.205 7461569 7315031 7196063 7089556 6983412 6872783 6764807 6676036 
834.062 6628798 6642861 6727923 6879145 7076994 7291107 7486683 7636078 
837.919 7724978 7754593 7739043 7698974 7652265 7606842 7558997 7496695 
841.776 7408752 7292791 7161670 7041734 6966846 6963277 7039714 7181612 
845.633 7356649 7523664 7648926 7719379 7744305 7751321 7771492 7827593 
849.490 7922167 8036911 8139263 8197099 8188894 8111411 7978793 7817304 
853.347 7654963 7512978 7403528 7329049 7284974 7261591 7247238 7228776 
857.204 7193874 7135800 7056181 6970112 6903080 6888570 6956240 7120711 
861.060 7375352 7690812 8023006 8320360 8542116 8666015 8693396 8645430 
864.917 8557389 8467576 8405177 8388186 8417271 8478152 8543636 8581857 
868.774 8564622 8474063 8310768 8094296 7861162 7650241 7495414 7412122 
872.631 7394664 7419504 7455772 7479503 7478256 7455670 7424223 7398506 
876.488 7384384 7379228 7374341 7363152 7348763 7345629 7373735 7451154 
880.345 7582902 7756043 7941199 8103140 8211381 8248898 8218135 8136764 
884.202 8030431 7923078 7833800 7774629 7752400 7771088 7832991 7935766 
888.059 8069788 8216886 8351603 8445211 8476767 8437271 8334410 8188590 
891.916 8029081 7883869 7773044 7707709 7689092 7712296 7769030 7850939 
895.773 7948758 8051493 8146690 8219216 8254672 8243596 8183221 8079611 
899.630 7946092 7800436 7659279 7535127 7433896 7354963 7294443 7247912 
903.487 7213918 7195424 7197242 7222981 7270553 7330060 7385160 7415998 
907.344 7408044 7356480 7270755 7170798 7082046 7026681 7013953 7038670 
911.201 7082989 7126538 7153249 7160288 7158908 7171034 7217590 7311560 
915.058 7450715 7618914 7790855 7940761 8051493 8118365 8146994 8148817 
918.914 8135076 8111040 8075628 8023883 7950479 7854043 7738200 7610619 
922.771 7481154 7359547 7253471 7169856 7114514 7092857 7109697 7167160 
926.628 7263815 7393248 7545140 7707338 7868113 8018955 8154624 8272200 
930.485 8368323 8438386 8476124 8476361 8438961 8372005 8292024 8222288 
934.342 8183728 8189232 8235863 8304621 8363459 8376971 8321373 8190616 
938.199 8002350 7792036 7605292 7479031 7432480 7461098 7540791 7638203 
942.056 7722887 7780229 7812277 7834509 7865582 7918287 7993608 8081265 
945.913 8165935 8236943 8293274 8345489 8408927 8497140 8613727 8750292 
949.770 8888286 9006973 9092635 9141428 9160819 9163999 9164135 9168264 
953.627 9176724 9185624 9191141 9193306 9196589 9207588 9231212 9268072 
957.484 9314109 9362960 9410530 9457090 9507651 9567634 9638839 9714901 
961.341 9782708 9824495 9825376 9780573 9698435 9598662 9506805 9447879 
965.198 9437314 9478729 9562215 9669602 9778302 9866489 9918421 9925030 
969.055 9885302 9804601 9694843 9570514 9446084 9334115 9241569 9169955 
972.912 9116726 9077511 9048753 9028827 9018441 9017866 9023922 9029301 
976.768 9020877 8984275 8908341 8789613 8635156 8462170 8293746 8149864 
980.625 8043797 7976430 7936508 7904486 7859745 7788730 7688957 7570157 
984.482 7450614 7351795 7289119 7268397 7283424 7319647 7358434 7383205 
988.339 7384890 7361838 7319850 7267892 7216647 7174672 7148095 7141830 
992.196 7157661 7195828 7252730 7321433 7391563 7452502 7496964 7522822 
996.053 7535127 7543151 7557244 7583071 7618948 7656278 7684337 7694724 
999.910 7687574 7671892 7664338 7681976 7735097 7823241 7934383 8049907 
1003.767 8148919 8215805 8243630 8233128 8189467 8119885 8030971 7928477 
1007.624 7820575 7718435 7634628 7580980 7562470 7573293 7595850 7605898 
1011.481 7578114 7495144 7353952 7167261 6961088 6765009 6608612 6512642 
1015.338 6486609 6529527 6631825 6779514 6956476 7147927 7341349 7526463 
1019.195 7696647 7847734 7978152 8086768 8171573 8228502 8251566 8233905 
1023.052 8171810 8067054 7929321 7774427 7622556 7493223 7400056 7348729 
1026.909 7335351 7350144 7378790 7409157 7434975 7456952 7481289 7516922 
1030.766 7570393 7641372 7721538 7795949 7849084 7869866 7857282 7820913 
1034.624 7779015 7750579 7747105 7768119 7800874 7824692 7819192 7774326 
1038.481 7693510 7593659 7495987 7418931 7367769 7333969 7297374 7237535 
1042.339 7142941 7018970 6886787 6779749 6732298 6766759 6889884 7087973 
1046.196 7332891 7587184 7814672 7988209 8090988 8119074 8078261 7982067 
1050.054 7847430 7693139 7536813 7392271 7268464 7168609 7090971 7030184 
1053.911 6979674 6934996 6895034 6863290 6847840 6859520 6907423 6996140 
1057.768 7121755 7270958 7421020 7544938 7618813 7626097 7563954 7444412 
1061.626 7292656 7138495 7008800 6921563 6879919 6874095 6885406 6893890 
1065.483 6883858 6848176 6790418 6722572 6660996 6621026 6614365 6644577 
1069.341 6705983 6784663 6863290 6923885 6954287 6951190 6920687 6875913 
1073.198 6831178 6797520 6778605 6769518 6761912 6748720 6728293 6706488 
1077.056 6693196 6696427 6716616 6745119 6764201 6755417 6708540 6625770 
1080.913 6524044 6429740 6371332 6366960 6420324 6518696 6638454 6750504 
1084.770 6829730 6861035 6840602 6776384 6683203 6581363 6490544 6427285 
1088.628 6401392 6414339 6458022 6517384 6575240 6615475 6627788 6609655 
1092.485 6565115 6501071 6424460 6340096 6250942 6160730 6077157 6010497 
1096.343 5973242 5974451 6015134 6085591 6167922 6241059 6285936 6292626 
1100.200 6260926 6200086 6122621 6040399 5961282 5888025 5821159 5760449 
1104.057 5706663 5661544 5626936 5604581 5595687 5601695 5624989 5669097 
1107.915 5735569 5822637 5923594 6028035 6125142 6208522 6279649 6348468 
1111.772 6429135 6531612 6655848 6787961 6902676 6969708 6967923 6891769 
1115.630 6756931 6593944 6442082 6334919 6291180 6312460 6384580 6485600 
1119.487 6592666 6689966 6770629 6835250 6887460 6930686 6965263 6987957 
1123.345 6994288 6980516 6946106 6894933 6834813 6776182 6730312 6706084 
1127.202 6707093 6730817 6768576 6806742 6831009 6831178 6803409 6751850 
1131.059 6687173 6623280 6572179 6541434 6533294 6545134 6572112 6609083 
1134.917 6652483 6698614 6743773 6781802 6805294 6806775 6782375 6734654 
1138.774 6673613 6615912 6582406 6591791 6656857 6781230 6958496 7172651 
1142.632 7402719 7628086 7830090 7996410 8122011 8208140 8260920 8289626 
1146.489 8304654 8314382 8325460 8341875 8364675 8393624 8427406 8463725 
1150.347 8499878 8532789 8559790 8579694 8593618 8605515 8621399 8647763 
1154.204 8688933 8744781 8810306 8875975 8929953 8961916 8964656 8936143 
1158.061 8879357 8801481 8710569 8615620 8525693 8448420 8391226 8359743 
1161.919 8356197 8379335 8423015 8477307 8529038 8564486 8572361 8544988 
1165.776 8481192 8386328 8272740 8156886 8058346 7994587 7975891 8001945 
1169.634 8059695 8125725 8169986 8165293 8094093 7953820 7756414 7526631 
1173.491 7293971 7082619 6909847 6782105 6697369 6649590 6631926 6639328 
1177.349 6667153 6709920 6758951 6802635 6828956 6828418 6797621 6740744 
1181.206 6667994 6591825 6521858 6463067 6414944 6373416 6334549 6297400 
1185.063 6265497 6246202 6246639 6272153 6322311 6391204 6467943 6540728 
1188.921 6599058 6636367 6650801 6644577 6623280 6593776 6562760 6537364 
1192.778 6523136 6524649 6544192 6581766 6634483 6696157 6759792 6816873 
1196.636 6861472 6890624 6905638 6911126 6913146 6918196 6929407 6946981 
1200.493 6967755 6986880 7000113 7005164 7003346 6998194 6994961 6997083 
1204.350 7006612 7022809 7042610 7062075 7078577 7090533 7097067 7098145 
1208.208 7092823 7078779 7053689 7015030 6962940 6900892 6836159 6777831 
1212.065 6735057 6714530 6717121 6738052 6767129 6791899 6801424 6789173 
1215.923 6756763 6713117 6671897 6647538 6650700 6683371 6738254 6799977 
1219.780 6851677 6878034 6870965 6831649 6769249 6696864 6628192 6574063 
1223.638 6540862 6531612 6546849 6586005 6646797 6724221 6809603 6890961 
1227.495 6955196 6992200 6997789 6976442 6939406 6901868 6876284 6868440 
1231.352 6875543 6889008 6897896 6894899 6879616 6858038 6839593 6831986 
1235.210 6837910 6853797 6872244 6885574 6890355 6888941 6888604 6897795 
1239.067 6923044 6965937 7023583 7090701 7162647 7237670 7316345 7400730 
1242.925 7489717 7578317 7657121 7715062 7742585 7736615 7701706 7649298 
1246.782 7592917 7546388 7518304 7511359 7523428 7549254 7583880 7623399 
1250.640 7666968 7714522 7764577 7814301 7858058 7888897 7901178 7892203 
1254.497 7864266 7823814 7781072 7746261 7727407 7728081 7746464 7776350 
1258.354 7809241 7838052 7858058 7869429 7876008 7883937 7899289 7926250 
1262.212 7965969 8017066 8076844 8142031 8209829 8278143 8345894 8412373 
1266.069 8477611 8542487 8608658 8678522 8754145 8836376 8923560 9011202 
1269.927 9091755 9155573 9194863 9203899 9182307 9135676 9074500 9012014 
1273.784 8960766 8931813 8931373 8959887 9012285 9080184 9152189 9217877 
1277.641 9270509 9307338 9330764 9346337 9361708 9382732 9412460 9450588 
1281.499 9493868 9537422 9576713 9609265 9634571 9654017 9669602 9683188 
1285.356 9696131 9708802 9721408 9734080 9747736 9763934 9784233 9810464 
1289.214 9844594 9888318 9943371 10011111 10092088 10186376 10292729 
1292.589 10409291 10533351 10661725 10790443 10914681 11028893 11127600 
1295.964 11206134 11262646 11299746 11324504 11347326 11379331 11428620 
1299.339 11496388 11575873 11653500 11713133 11740468 11728894 11681988 
1302.715 11612762 11539599 11481861 11453419 11459305 11495878 11553448 
1306.090 11619432 11682226 11735056 11775533 11804302 11823199 11832324 
1309.465 11828782 11807298 11760656 11682635 11570428 11426137 11257613 
1312.840 11077360 10900750 10740615 10607023 10504259 10432708 10389946 
1316.216 10373216 10379325 10404267 10442924 10486947 10525713 10548492 
1319.591 10547405 10519161 10467803 10402673 10336941 10282381 10247607 
1322.966 10235225 10241603 10258226 10274544 10282212 10276919 10260702 
1326.341 10241500 10231425 10242552 10285096 10364325 10479208 10622812 
1329.717 10784601 10953620 11120054 11278186 11426001 11564678 11697612 
1333.092 11827386 11956383 12084804 12212649 12340124 12468794 12602312 
1336.467 12745256 12902206 13075193 13261913 13455105 13642297 13810688 
1339.842 13951052 14061514 14147324 14217571 14281154 14342862 14403516 
1343.218 14461234 14513820 14559971 14602152 14645090 14695847 14760425 
1346.593 14842704 14943586 15060818 15190057 15325994 15463176 15596176 
1349.968 15719941 15830098 15923956 16001642 16066587 16125901 16188182 
1353.343 16262028 16353056 16462065 16586145 16720971 16864586 17020586 
1356.719 17198878 17411900 17672304 17987392 18358010 18779592 19248272 
1360.094 19766106 20346568 21014324 21798412 22715520 23752212 24859414 
1363.469 25964552 26998110 27910978 28681786 29307830 29795610 30160356 
1366.844 30427880 30641700 30860638 31158710 31604882 32245222 33100606 
1370.220 34169156 35443388 36925644 38640400 40628376 42923964 45520464 
1373.595 48322336 51132820 53705256 55812924 57327428 58219968 58511268 
1376.970 58225840 57371252 55951752 54001348 51611200 48930520 46120608 
1380.345 43329964 40658392 38153260 35832920 33700540 31752794 29980004 
1383.721 28358812 26848036 25390624 23927512 22412580 20833590 19226036 
1387.096 17666748 16241424 15007205 13975312 13120645 12406090 11797799 
1390.471 11271691 10812319 10406507 10041052 9702059 9378128 9064959 8768345 
1394.328 8501939 8280541 8110938 7988614 7902224 7839805 7793419 7758236 
1398.186 7728823 7697996 7657222 7602426 7538026 7477244 7435648 7424896 
1402.043 7449064 7501516 7567089 7624208 7655233 7653311 7626636 7592512 
1405.901 7568438 7562200 7570764 7585903 7600267 7612508 7626535 7648353 
1409.758 7680155 7718300 7754626 7781950 7800570 7820205 7856472 7922639 
1413.616 8022432 8147230 8279460 8401969 8505351 8594869 8689677 8817541 
1417.473 8999531 9237507 9502978 9749227 9937744 10065501 10158190 10250694 
1421.330 10366226 10513458 10689945 10890557 11112032 11356815 11630493 
1424.706 11936459 12271303 12626497 12994819 13377155 13787567 14252392 
1428.081 14804614 15472515 16267875 17178470 18173508 19216962 20280494 
1431.456 21347368 22408708 23458586 24490782 25502946 26504654 27520966 
1434.831 28597942 29793338 31152944 32663182 34236228 35750200 37121680 
1438.207 38346052 39475716 40578936 41717824 42932012 44235920 45618424 
1441.582 47054008 48511988 49965176 51397696 52800568 54169360 55502868 
1444.957 56804496 58087460 59377112 60709128 62116648 63613744 65186584 
1448.332 66797832 68411120 70016872 71637232 73315152 75090880 76980688 
1451.708 78958824 80961792 82917448 84760816 86467880 88052608 89549272 
1455.083 90987040 92358392 93590240 94547288 95117768 95324216 95306760 
1458.458 95214504 95110056 94989672 94829096 94615712 94350960 94042640 
1461.833 93689096 93266424 92719624 91970384 90932544 89551840 87837704 
1465.209 85847184 83638392 81229080 78588808 75685328 72519096 69144424 
1468.584 65639652 62094936 58570000 55047492 51449092 47655020 43592248 
1471.959 39345396 35219468 31611868 28760904 26640906 25045828 23734470 
1475.334 22542560 21391746 20280842 19246262 18323862 17522902 16823702 
1478.710 16192308 15595386 15009881 14426671 13848212 13284973 12750169 
1482.085 12255216 11808864 11418109 11085995 10812557 10590455 10403962 
1485.460 10229932 10043459 9825681 9571021 9288889 8999937 8727133 8486464 
1489.318 8283378 8114584 7975789 7864637 7780296 7720256 7677322 7642013 
1493.175 7604111 7555592 7492751 7416571 7332351 7244475 7152912 7049581 
1497.032 6923313 6767835 6590345 6409362 6248690 6126452 6049672 6013890 
1500.890 6006601 6013420 6023264 6031227 6036165 6038416 6035796 6020274 
1504.747 5975627 5877378 5698202 5430350 5119377 4857242 4704880 4648344 
1508.605 4638800 4639738 4633341 4614152 4581000 4532382 4465323 4378026 
1512.462 4272006 4153401 4032186 3920200 3826827 3757438 3711118 3681176 
1516.319 3657919 3635431 3617589 3615919 3642782 3704735 3799518 3914516 
1520.177 4022889 4084026 4060681 3942534 3760680 3562966 3386345 3245214 
1524.034 3139605 3066221 3021909 3003025 3003258 3012467 3018606 3013167 
1527.892 2996385 2976668 2967927 2983140 3031752 3116577 3233731 3372621 
1531.749 3517368 3644887 3725655 3734711 3665671 3538045 3382539 3224184 
1535.607 3073862 2931565 2793483 2654745 2511185 2363875 2221710 2109157 
1539.464 2066042 2130101 2302180 2534081 2762604 2936902 3031685 3042463 
1543.321 2977202 2856515 2710888 2574376 2472129 2413950 2395958 2407253 
1547.179 2437540 2480093 2531414 2587742 2642277 2684716 2704120 2695318 
1551.036 2661412 2612775 2560944 2516717 2487258 2473995 2472462 2474528 
1554.894 2474528 2472928 2478860 2508786 2586209 2737329 2977135 3267248 
1558.751 3482062 3489343 3306242 3053874 2820529 2636176 2500654 2408253 
1562.609 2353114 2330628 2337224 2367173 2412451 2462998 2511785 2556311 
1566.466 2599275 2645944 2699752 2757969 2810157 2837538 2823264 2765938 
1570.323 2684016 2603508 2544479 2513885 2507986 2516851 2528448 2532381 
1574.181 2521550 2496089 2463698 2439573 2437974 2461865 2501354 2543879 
1578.038 2581776 2614642 2645910 2678782 2714322 2749833 2781044 2803654 
1581.896 2817628 2827199 2840906 2868055 2915086 2983240 3066755 3154490 
1585.753 3233631 3291986 3321200 3318295 3285542 3231060 3166773 3108201 
1589.610 3068423 3056010 3072327 3111104 3160197 3204823 3233698 3240641 
1593.468 3228023 3204323 3182560 3174883 3189769 3230026 3291919 3368013 
1597.325 3447827 3520608 3576061 3606029 3606063 3577364 3528357 3472976 
1601.183 3427956 3406549 3414363 3446992 3492416 3535406 3563433 3572019 
1605.040 3564536 3549570 3535439 3527389 3524683 3522144 3512724 3491480 
1608.898 3457646 3414029 3364206 3310449 3252225 3188101 3116877 3040761 
1612.755 2963357 2891003 2829300 2782478 2752000 2736262 2729626 2723058 
1616.612 2708621 2683016 2648544 2610775 2574609 2543413 2518983 2503320 
1620.470 2498155 2504820 2522683 2548012 2572876 2586842 2581509 2555178 
1624.327 2511985 2457966 2397558 2332227 2262010 2188108 2114751 2049829 
1628.185 2003458 1982787 1988778 2016606 2058418 2105495 2151178 2191771 
1632.042 2224808 2249020 2262243 2260445 2238329 2192304 2126305 2056388 
1635.900 2006920 1991907 2004856 2025628 2033550 2016673 1970638 1900279 
1639.757 1816790 1736676 1677099 1650989 1664792 1717415 1801751 1907934 
1643.614 2026493 2147316 2259046 2347185 2391860 2372704 2281395 2137027 
1647.472 1980124 1849665 1764621 1723735 1718213 1739004 1781122 1843376 
1651.329 1926870 2032319 2149014 2243925 2274501 2233633 2157805 2082788 
1655.187 2022498 1976063 1938286 1903907 1870362 1837087 1806176 1780989 
1659.044 1765087 1760495 1767282 1783119 1804013 1825441 1842477 1851694 
1662.901 1851228 1841545 1824842 1803680 1781455 1760795 1744760 1735678 
1666.759 1734147 1737973 1741832 1737241 1716117 1677232 1629869 1590792 
1670.616 1573832 1584640 1618628 1667420 1720908 1771607 1814095 1843509 
1674.474 1855588 1846670 1815825 1765586 1701814 1630102 1554246 1476674 
1678.331 1398883 1322668 1250820 1186924 1134200 1095333 1072712 1068693 
1682.189 1086796 1131774 1204600 1294752 1377975 1430696 1451374 1456261 
1686.046 1461281 1473249 1490904 1506763 1510487 1490638 1440270 1359760 
1689.903 1257865 1148750 1046871 964010 906332 877148 878144 911811 982109 
1694.243 1091380 1236631 1398983 1543439 1634792 1658406 1624315 1551253 
1698.100 1453834 1336262 1197390 1040162 881364 749807 665476 626220 616432 
1702.440 620181 626718 629870 627548 620745 614010 613180 622902 644172 
1706.780 673540 705034 732083 749608 752462 737029 701185 644703 570379 
1711.119 482965 389897 298706 217745 154498 115122 103125 118172 156354 
1715.459 210319 271585 331931 382933 417523 431619 426976 410857 391522 
1719.798 376400 369701 374178 390494 418518 456097 500214 547221 593571 
1724.138 636241 673142 701915 720434 726574 719139 699027 669492 636308 
1728.478 605648 583152 571540 569649 573597 579138 584314 591182 604719 
1732.817 631363 673441 722956 761457 773573 758835 728266 694846 669226 
1737.157 659171 668861 698164 740680 783796 811149 809755 775963 714460 
1741.496 634814 547022 460376 381076 312898 256400 210485 172994 142665 
1745.836 119762 106439 105743 120591 151913 197391 252190 308653 359885 
1750.176 401372 432316 455600 476032 498224 524530 554786 587034 618555 
1754.515 646362 667467 680410 685354 685188 684657 688905 700819 720799 
1758.855 748446 783298 825755 877347 938707 1006950 1074108 1128619 1159116 
1763.194 1159647 1130878 1078592 1011632 939703 872599 817921 781705 766436 
1767.534 772212 796111 834918 886112 947772 1017544 1090085 1154332 1195695 
1771.874 1200281 1165993 1105166 1039298 985330 950163 932530 927018 928247 
1776.213 933361 942691 958763 984367 1018208 1054876 1083242 1090384 1065206 
1780.553 1005322 918252 818884 722160 637900 570478 519852 483628 459812 
1784.892 447871 448767 463195 490660 527482 567924 604586 629505 637237 
1789.232 624661 593571 550075 505986 476496 474473 504460 558501 620148 
1793.572 672876 706163 717281 709349 688275 661560 635279 613114 595595 
1797.911 580763 565767 548549 528577 507711 488869 474971 468104 469232 
1802.251 479581 500446 533255 578043 631994 688308 737692 768693 771847 
1806.590 742505 682799 601169 510265 423991 352689 302088 273342 264622 
1810.930 272480 293700 325000 362306 400178 432548 453278 458618 448468 
1815.270 427705 404257 388139 387111 404091 435666 473246 507644 530568 
1819.609 538496 532658 518227 501906 490130 488239 499252 523767 559828 
1823.949 602562 644172 675598 690100 684890 661826 626154 584048 540885 
1828.288 501110 468701 445848 432913 427506 424720 418220 401903 371525 
1832.628 325498 265783 198451 134777 88211 71012 91194 148797 235945 338264 
1837.450 440508 528146 592243 630003 642977 634748 608468 566862 512753 
1841.789 450790 390560 345128 328780 350235 405517 475999 537169 569251 
1846.129 562516 519620 450591 370961 295822 239194 210286 211446 237768 
1850.469 279376 324669 360283 375173 360714 313925 238763 146941 56629 
1854.808 -13319 -44463 -24750 48278 166066 309748 455865 580863 670056 
1859.148 719504 737560 740248 747119 774303 829274 908059 996721 1076831 
1863.487 1128652 1137920 1099552 1017577 903809 772876 639294 512521 397591 
1867.827 295391 205877 129772 68857 24486 -3942 -19581 -26970 -30482 -32205 
1872.649 -30581 -20045 6659 56397 131296 226961 330273 422697 486680 508142 
1877.471 483263 418353 328349 231337 144322 80357 45164 39596 62064 110416 
1882.292 185059 286173 412648 557307 707490 846404 956007 1022958 1040727 
1886.632 1010636 939603 839234 724848 611090 512256 438286 393379 375305 
1890.972 376997 389101 401173 404854 394872 369502 331765 289257 252422 
1895.311 231204 231668 254146 294097 343470 394109 439646 475966 502934 
1899.651 522971 541217 563478 595163 639427 695609 759267 822203 875454 
1903.990 911545 927284 924860 910549 891491 871769 849426 815265 755715 
1908.330 657777 516734 340884 152145 -21470 -152124 -224425 -237373 -202004 
1912.670 -133642 -46219 52951 165005 296054 451851 632923 829507 1020932 
1917.009 1180213 1279863 1306084 1265973 1186326 1099020 1032357 1002499 
1920.867 1012861 1055175 1112972 1164697 1188685 1170976 1108786 1011865 
1924.724 897035 785589 698198 648785 642281 670288 714460 748745 749608 
1929.064 703674 613047 496034 381838 302221 279277 320225 414970 540221 
1933.403 664447 758337 803448 795215 743501 666439 587167 525425 493016 
1937.743 492253 514545 544667 563976 558170 517265 438352 326061 189269 
1942.082 39265 -115059 -267574 -414640 -550934 -666774 -751855 -796408 
1945.940 -797234 -761514 -705546 -650662 -613837 -602323 -608345 -612713 
1949.797 -590312 -522540 -402226 -238135 -51288 130832 282625 388139 441304 
1954.137 446412 412018 351528 279244 213004 172762 175811 232398 337336 
1958.476 469298 590419 657976 640290 530700 355607 166132 24851 -18587 57590 
1963.298 240851 494210 765274 1008444 1200181 1340881 1448249 1544835 
1967.156 1644171 1741100 1819551 1857052 1839748 1767548 1652186 1511385 
1971.013 1364380 1225633 1099784 985064 871703 748712 605316 435367 238100 
1975.353 23625 -188094 -371306 -495534 -540378 -499506 -391169 -250454 
1979.210 -128938 -73352 -110686 -242274 -441353 -665848 -866980 -1008686 
1983.068 -1075820 -1077473 -1040817 -999034 -975364 -974140 -980389 -966272 
1986.925 -904279 -778118 -593356 -377265 -173554 -26108 26209 -36147 -207965 
1991.265 -456943 -732737 -982075 -1163664 -1259188 -1274451 -1232327 
1994.640 -1159963 -1077010 -991133 -897468 -782020 -632664 -446417 -231247 
1998.497 -5168 213667 415732 602927 786618 978223 1178020 1368336 1514411 
2002.837 1579020 1534062 1376845 1131509 846039 574858 356005 195899 62627 
2007.176 -100649 -355051 -732571 -1220399 -1751573 -2227874 -2534962 
2010.552 -2577158 -2305795 -1721970 -876405 146344 1231780 2266373 3149450 
2014.409 3804966 4195085 4316077 4195754 3885563 3459784 3004426 2598608 
2018.266 2303813 2148548 2126738 2203094 2325931 2441572 2506353 2501821 
2022.124 2435941 2337391 2238229 2162467 2113852 2075797 2020235 1923542 
2025.981 1778860 1604095 1433056 1301332 1235468 1240751 1302495 1399913 
2029.839 1519332 1665990 1860213 2118747 2437507 2773708 3054475 3193575 
2033.696 3135967 2880496 2494089 2081856 1762059 1615435 1651421 1804712 
2037.554 1961551 2009449 1867567 1522856 1023921 468038 -40653 -420433 
2041.411 -630480 -671836 -569995 -356773 -55661 310344 712767 1111245 
2045.268 1449512 1670247 1731087 1616433 1346033 971980 563080 179093 
2049.126 -137848 -371671 -526214 -611290 -634980 -599411 -505099 -354786 
2052.983 -159676 62429 290052 504161 692921 853277 989348 1108620 1216728 
2057.323 1317882 1412778 1500113 1575528 1630601 1651854 1622286 1526979 
2061.180 1360724 1135562 881597 646827 484690 434007 509535 691295 932198 
2065.520 1166890 1338688 1409188 1367937 1230185 1027043 793987 560525 
2069.377 349306 175811 49869 -21801 -36843 1557 83240 192385 311472 423659 
2074.199 518326 590949 642181 674137 688573 685321 664149 627282 580863 
2078.539 534349 497825 476496 469995 471322 472383 466678 455069 444886 
2082.878 447805 471654 516203 569417 609596 612550 558136 439778 266479 
2087.218 63655 -136656 -299958 -398320 -417023 -354853 -223696 -43535 160398 
2091.557 366849 558800 724416 857526 954911 1014854 1037173 1023057 976364 
2095.897 904141 816759 726308 642579 571938 512819 458850 399979 328582 
2100.237 242907 148963 58187 -14744 -59637 -71795 -53408 -9277 56662 144985 
2105.058 259119 403395 575720 765075 949133 1098821 1187588 1197722 1128253 
2109.398 995392 829573 665012 531098 447009 416164 428999 465451 502735 
2113.738 517961 494840 426976 318402 184430 46522 -69940 -144208 -165539 
2118.077 -135265 -66097 22863 111874 188639 248775 295523 333589 363798 
2122.417 378157 362770 299900 178794 132 -219192 -452706 -666608 -830207 
2126.756 -922101 -931557 -858217 -710309 -501128 -247507 32041 315749 583617 
2131.096 818552 1011300 1162737 1282688 1384423 1474945 1548925 1585704 
2134.953 1556673 1433521 1204334 881132 502038 118404 -213761 -447708 
2138.811 -556295 -533296 -392063 -157987 133650 446710 746787 1002201 
2142.668 1192639 1311402 1369599 1393199 1414207 1457258 1528609 1608651 
2146.526 1659470 1641876 1530903 1330213 1073875 814402 599211 454870 377792 
2150.865 341116 310278 265948 215955 195236 248211 401438 646727 930106 
2155.205 1168285 1270525 1180645 896006 481240 44203 -291845 -429900 -337670 
2159.544 -44894 372321 831532 1258828 1606822 1849964 1979525 1999730 
2163.402 1924774 1777962 1585172 1374784 1167721 973873 792560 617626 447938 
2167.741 295656 188142 161790 251228 469232 797738 1185329 1564820 1866203 
2172.081 2043571 2088448 2031320 1930831 1852560 1849565 1941648 2112154 
2175.938 2312673 2484392 2572210 2541646 2387696 2133197 1820383 1495159 
2179.796 1201742 967098 799199 686084 601865 515871 402964 255339 85626 
2184.135 -71431 -172726 -173024 -44927 211977 564241 951491 1300933 1538285 
2188.475 1613905 1513247 1265242 932730 602297 360913 267208 344863 570545 
2192.815 884186 1199649 1435981 1536289 1480264 1288005 1011699 721595 
2196.672 481571 341481 324569 427871 627216 885647 1163601 1417532 1610047 
2201.012 1710096 1697190 1565386 1326856 1011035 657545 313528 21239 -191936 
2205.351 -315288 -354323 -324592 -243831 -124433 27203 210253 423361 660598 
2209.691 908922 1151342 1368070 1543605 1668584 1741300 1765652 1746889 
2213.548 1690770 1600037 1478137 1330146 1164897 994961 835482 698131 591845 
2217.888 519985 483296 480974 513350 580100 678418 800261 930239 1047336 
2222.228 1133170 1175661 1176857 1152637 1129582 1133236 1178153 1261586 
2226.085 1362785 1451972 1499681 1491901 1434751 1352548 1276208 1232909 
2229.942 1233840 1270824 1320342 1355007 1355938 1319012 1255273 1185296 
2233.800 1127755 1091712 1071948 1052518 1014522 943555 834818 694879 537601 
2238.139 379815 235348 116614 31842 -12491 -11066 36614 124867 238464 356071 
2242.961 452847 510497 523004 500015 464091 441802 456595 518127 620812 
2247.301 745758 869511 970585 1035545 1062715 1058662 1035180 1004492 977559 
2251.640 961287 959494 972080 994994 1020434 1037173 1034018 1003595 945414 
2255.980 866656 782535 709813 661361 642646 649714 671649 695709 712999 
2260.320 721429 725943 734473 754255 787116 828378 867885 893582 896438 
2264.659 873031 826751 768262 713298 677522 675564 716186 800028 918418 
2268.999 1054843 1189948 1303658 1383759 1427338 1441167 1436946 1426108 
2272.856 1414573 1400279 1375748 1333270 1272087 1200447 1135163 1093805 
2276.714 1088258 1116792 1163568 1202905 1211112 1174731 1097060 995857 
2280.571 897600 825423 788775 781805 786651 781904 752993 699592 635179 
2284.911 582655 563179 588395 655554 749176 845906 924063 971515 987256 
2289.250 981179 967663 960224 965073 979651 993234 993267 968261 913869 
2293.590 834121 741708 653563 587034 555980 566198 614673 690266 777124 
2297.929 859319 923565 964143 981943 984533 981810 983470 995459 1019039 
2302.269 1050724 1085302 1117889 1146259 1171574 1197623 1228191 1265242 
2306.126 1306416 1345368 1373388 1381897 1366574 1328351 1275078 1218754 
2309.984 1172106 1145163 1142206 1160179 1190147 1221546 1244606 1255007 
2313.841 1254209 1250421 1254508 1276374 1323300 1396722 1492599 1601268 
2317.699 1710961 1808205 1880346 1918617 1917818 1878782 1807739 1715385 
2321.556 1615502 1521160 1444060 1391902 1367338 1369100 1393997 1437610 
2325.414 1495492 1563956 1637951 1711627 1778228 1829999 1860779 1867268 
2329.271 1850197 1814228 1766617 1715685 1667021 1624980 1590892 1564787 
2333.128 1546199 1534627 1529041 1527511 1526347 1521160 1507661 1484620 
2336.986 1454731 1425177 1405431 1404966 1429565 1479633 1549025 1627042 
2340.843 1702113 1763689 1804512 1821947 1816191 1789307 1743562 1681656 
2344.701 1607221 1525084 1442198 1365477 1301099 1253146 1223107 1210747 
2348.558 1215698 1237794 1277737 1337591 1419327 1524818 1653816 1802848 
2352.416 1964314 2127504 2277465 2398990 2477360 2502620 2471196 2389828 
2356.273 2275766 2152377 2047366 1984817 1978859 2031886 2132532 2260678 
2360.130 2391261 2501787 2577543 2612175 2607409 2569910 2508152 2428344 
2363.988 2334826 2228671 2109857 1978726 1838018 1693331 1553747 1429898 
2367.845 1331276 1265574 1235103 1236897 1262650 1301631 1341779 1374352 
2371.703 1394994 1404833 1409786 1416667 1431560 1457191 1490305 1523488 
2375.560 1547263 1553015 1535093 1493730 1433388 1362220 1288703 1219951 
2379.417 1159946 1109617 1067597 1032124 1001869 976795 958099 946344 940998 
2383.757 939603 938076 932032 918850 898928 875919 856099 846338 851252 
2388.097 871205 901053 932165 953517 955376 933128 887540 825789 759134 
2392.436 700355 660465 645898 657910 692788 743235 800394 856597 906100 
2396.776 946211 976330 997618 1011466 1018607 1019172 1012562 998547 977659 
2401.115 951624 923399 896172 873197 856231 845574 840528 839267 840329 
2405.455 843417 849392 860016 877712 903875 938673 980183 1024286 1066435 
2409.795 1101645 1126160 1138618 1140545 1136126 1130944 1131210 1141375 
2413.652 1163036 1193968 1229254 1261819 1284549 1292758 1284450 1261088 
2417.510 1225965 1183967 1139648 1095931 1055308 1019271 989282 967464 
2421.367 955542 954413 963910 981245 1002533 1023489 1040527 1051322 1055474 
2425.707 1053448 1045675 1032357 1012529 985496 951790 913371 874558 839898 
2430.046 814037 799364 796377 803514 818618 840263 867851 901485 940234 
2434.386 980382 1015884 1038734 1041623 1021397 981411 931435 885481 858589 
2438.725 861178 895707 956306 1030431 1102575 1158784 1190612 1195961 
2442.583 1177654 1141807 1094071 1038867 978323 914135 848961 787282 736132 
2446.922 703275 694912 714891 762553 833557 920444 1014788 1107923 1192340 
2451.262 1262085 1312498 1340582 1345036 1326723 1288570 1235368 1173402 
2455.119 1109052 1048598 997584 959892 938906 936349 952952 987721 1037339 
2459.459 1096529 1157421 1211212 1249291 1264411 1252315 1212076 1146691 
2463.316 1061984 966335 868814 778054 701516 643641 606146 587764 585442 
2467.656 594997 612085 633520 656848 679680 699890 714924 722691 722093 
2471.996 715256 706694 703674 713696 741742 788244 848529 913969 974504 
2476.335 1022858 1056404 1077429 1091247 1103040 1114733 1124200 1125230 
2480.193 1112474 1084172 1045078 1006385 981976 984799 1021131 1088457 
2484.050 1175295 1265375 1342477 1394761 1418462 1417532 1401310 1380335 
2487.907 1363350 1354043 1350587 1346665 1333902 1304522 1253312 1179681 
2491.765 1088324 988352 891524 810817 756645 735435 747583 787780 847168 
2496.104 914235 978987 1034316 1076566 1105066 1121975 1129349 1129084 
2499.962 1122274 1109883 1092244 1071450 1049562 1028936 1011234 996754 
2503.819 984500 972080 957369 938740 916825 894379 876284 868449 876317 
2508.159 903709 950993 1015585 1091115 1169681 1242911 1303326 1345634 
2512.016 1366840 1365909 1343075 1299903 1239289 1165295 1084770 1006551 
2515.874 940068 894280 874956 882593 912309 955708 1002234 1042719 1072314 
2520.213 1089952 1098622 1102575 1105896 1110680 1116958 1123868 1130844 
2524.071 1138884 1150378 1168086 1193237 1224270 1256801 1283885 1298441 
2527.928 1295616 1274081 1236797 1190047 1142206 1100316 1069889 1053514 
2531.786 1051156 1060921 1081017 1109617 1145594 1187854 1234504 1282555 
2535.643 1327653 1365344 1391936 1405897 1409487 1407360 1405598 1410152 
2539.500 1424380 1447617 1475477 1501344 1518833 1522989 1512582 1489441 
2543.358 1457989 1422983 1388711 1358198 1333104 1314592 1303359 1300468 
2547.215 1305486 1317018 1331243 1343441 1348725 1344970 1333503 1319411 
2551.073 1311402 1318348 1346532 1398551 1471786 1560032 1654781 1748253 
2554.930 1833759 1906436 1962716 1998664 2009649 1991608 1941548 1860280 
2558.788 1753409 1632197 1511717 1407326 1332639 1294918 1294585 1324895 
2562.645 1375150 1433255 1489607 1539748 1584374 1628206 1676567 1732750 
2566.502 1795495 1858582 1912327 1947505 1958489 1945974 1917119 1884139 
2570.360 1860912 1857817 1879680 1923942 1982321 2042605 2093376 2126838 
2574.217 2140290 2136627 2122642 2106927 2096372 2095273 2103564 2117848 
2578.075 2132365 2141422 2141622 2133197 2120145 2109557 2108858 2123408 
2581.932 2153776 2196001 2242792 2285392 2317237 2336058 2344020 2345985 
2585.790 2346585 2347584 2346552 2337990 2315804 2277232 2225274 2169626 
2589.647 2123441 2100734 2110822 2155907 2229937 2321034 2415283 2499288 
2593.504 2564744 2607742 2628476 2629376 2613542 2583876 2543313 2496722 
2597.362 2450236 2411851 2390061 2390894 2416349 2462732 2521050 2579409 
2601.219 2624842 2648611 2646511 2621242 2580576 2536280 2500088 2480826 
2605.077 2482925 2505386 2542113 2583342 2619009 2639777 2639343 2616209 
2608.934 2573376 2518350 2460399 2410252 2376235 2362809 2370238 2393760 
2612.792 2426178 2459966 2489657 2513918 2535714 2560544 2594742 2641843 
2616.649 2701353 2768573 2835770 2895473 2941839 2973332 2991581 3000356 
2620.506 3003525 3002658 2996986 2984075 2960921 2926428 2881997 2831334 
2624.364 2780044 2733961 2698085 2675681 2668646 2677481 2701786 2739596 
2628.221 2787647 2841707 2897107 2949446 2996252 3037191 3073929 3108801 
2632.079 3143443 3177420 3207661 3229725 3239306 3234299 3215672 3187533 
2635.936 3155792 3126389 3103128 3087510 3078300 3072861 3068089 3061582 
2639.793 3052072 3038759 3022176 3003292 2984408 2968661 2960488 2964091 
2643.651 2982006 3014502 3057945 3106065 3151153 3186632 3209229 3219811 
2647.508 3222314 3223683 3229592 3243779 3266546 3295391 3325807 3353321 
2651.366 3374491 3387715 3393525 3393124 3388817 3382672 3376094 3369983 
2655.223 3364473 3358730 3351417 3340966 3327043 3310582 3294490 3283105 
2659.081 3281770 3294456 3323069 3366343 3420341 3478721 3535473 3586351 
2662.938 3629751 3666707 3700190 3733742 3769503 3807674 3846015 3881150 
2666.795 3908665 3924881 3927656 3916823 3894490 3863833 3829368 3795173 
2670.653 3764624 3739390 3719773 3704568 3691802 3680106 3668712 3658219 
2674.510 3650267 3646959 3650033 3660091 3676330 3696648 3718069 3737285 
2678.368 3751489 3758106 3755767 3743969 3723716 3697483 3668745 3642014 
2682.225 3621131 3608970 3605963 3610774 3619694 3628582 3633995 3634229 
2686.083 3629284 3621098 3611408 3601586 3592098 3582008 3570816 3558857 
2689.940 3547732 3539849 3537978 3542955 3553912 3567576 3579235 3585015 
2693.797 3582743 3573289 3559224 3544859 3533735 3527322 3524750 3524048 
2697.655 3522478 3518370 3512457 3506745 3504006 3506478 3514495 3526186 
2701.512 3538579 3547799 3551708 3550071 3545194 3540918 3541753 3551875 
2705.370 3573222 3605762 3646792 3692537 3737987 3778060 3809044 3828599 
2709.227 3836388 3834181 3825557 3815128 3807808 3807941 3818069 3839229 
2713.084 3870385 3909434 3953402 3999714 4046768 4093592 4139886 4185450 
2716.942 4229780 4271672 4309016 4339972 4362663 4376319 4381540 4380435 
2720.799 4375950 4371432 4369926 4373641 4383849 4400652 4422978 4449489 
2724.657 4477944 4505464 4529938 4549157 4561512 4566869 4565899 4560005 
2728.514 4550764 4539045 4523945 4503655 4474998 4435028 4382176 4317583 
2732.372 4244569 4169592 4099914 4041785 3999447 3974267 3963867 3963667 
2736.229 3968181 3971592 3969619 3959955 3942234 3917425 3887903 3856946 
2740.086 3827630 3802827 3784510 3773314 3768501 3767732 3767398 3763822 
2743.944 3753828 3735647 3709614 3678202 3645221 3615551 3593735 3582810 
2747.801 3584113 3597309 3619694 3647427 3676297 3702395 3722580 3735614 
2751.659 3741496 3741563 3737653 3731904 3725956 3720709 3716598 3713992 
2755.516 3713557 3716531 3724452 3738755 3760446 3789223 3822917 3858250 
2759.374 3891146 3917692 3934978 3942601 3942000 3936918 3931902 3932136 
2763.231 3941197 3961125 3991087 4028374 4068440 4106336 4138047 4161396 
2767.088 4176149 4184814 4190903 4198364 4210341 4228843 4254138 4285090 
2770.946 4319892 4356639 4394125 4431313 4468236 4504895 4541121 4576814 
2774.803 4611841 4646268 4680999 4717307 4757169 4802563 4854896 4914341 
2778.661 4980061 5049211 5118539 5184524 5244517 5297240 5343596 5385562 
2782.518 5426827 5470847 5520645 5577865 5643182 5716130 5795202 5878688 
2786.375 5964977 6051822 6137172 6218774 6294643 6364170 6427722 6487753 
2790.233 6547758 6611572 6682261 6761004 6846560 6936376 7027052 7116063 
2794.090 7202700 7288580 7376363 7468952 7567629 7671960 7779352 7886366 
2797.948 7990268 8090177 8187205 8284155 8384267 8490146 8602743 8721218 
2801.805 8843781 8968580 9094327 9220821 9348368 9477849 9610248 9745906 
2805.663 9885810 10031388 10184680 10348512 10524830 10714634 10916311 
2809.038 11125969 11338415 11548038 11751226 11946675 12136115 12323624 
2812.413 12514422 12712501 12920638 13139598 13368169 13604688 13847426 
2815.788 14096049 14351458 14615688 14891771 15183263 15493014 15823396 
2819.164 16175732 16549451 16942924 17352272 17773500 18202602 18636828 
2822.539 19076200 19523886 19986116 20471068 20988138 21545586 22148968 
2825.914 22800892 23500730 24245142 25030140 25853272 26715246 27621550 
2829.289 28581910 29611364 30725904 31940662 33268094 34715080 36283056 
2832.665 37969052 39769124 41680512 43705128 45849908 48126988 50550916 
2836.040 53135060 55889040 58816232 61913168 65170332 68575064 72112768 
2839.415 75769072 79531744 83388888 87329808 91344688 95422776 99553560 
2842.790 103727648 107934072 112162552 116401808 120638752 124859400 
2845.683 129047200 133182344 137241552 141194384 145001424 148616368 
2848.576 151982272 155038208 157724528 159983088 161766672 163037600 
2851.469 163769472 163948000 163571968 162655984 161229760 159342240 
2854.363 157056416 154440224 151567216 148503200 145304912 142023616 
2857.256 138702432 135382448 132105632 128909768 125830696 122898280 
2860.149 120132328 117547104 115151480 112951176 110952120 109159416 
2863.042 107575624 106199080 105022256 104031264 103207560 102532152 
2865.935 101985376 101548152 101201752 100922680 100682800 100448896 
2868.828 100181664 99842808 99397624 98817000 98083216 97187808 96132600 
2872.203 94928568 93596152 92164200 90666392 89142408 87631656 86169624 
2875.578 84787800 83509344 82350736 81324056 80437384 79697320 79109992 
2878.954 78679944 78410752 78303760 78358128 78571728 78940392 79460248 
2882.329 80125432 80929296 81864336 82920728 84088664 85358064 86719360 
2885.704 88163976 89683384 91268632 92910856 94600552 96329560 98091856 
2889.079 99884008 101705080 103554592 105430768 107329424 109242712 
2891.972 111159944 113070704 114964272 116832528 118669776 120472472 
2894.865 122238984 123970008 125668872 127341496 128996360 130643632 
2897.759 132291392 133945792 135609360 137281104 138959792 140645248 
2900.652 142339920 144048992 145778864 147534960 149321136 151138480 
2903.545 152987392 154869152 156787264 158747280 160756256 162820320 
2906.438 164943648 167128176 169374112 171681456 174051120 176485088 
2909.331 178985152 181552224 184185504 186881872 189637952 192449616 
2912.224 195313152 198223888 201174272 204151952 207140112 210114928 
2915.117 213049952 215915152 218676304 221296528 223732912 225935280 
2918.010 227852928 229432448 230626224 231398496 231723472 231588688 
2920.903 230991136 229935440 228431248 226494832 224149264 221422720 
2923.796 218351472 214975632 211336320 207476576 203438496 199260896 
2926.689 194983424 190641344 186265328 181882672 177513216 173172960 
2929.582 168874528 164628896 160446976 156339664 152316400 148385056 
2932.475 144550912 140816544 137183424 133652944 130227056 126909776 
2935.368 123705960 120621864 117665168 114842616 112162464 109632352 
2938.261 107258912 105047792 103002872 101126216 99418240 97878944 96507368 
2941.637 95303216 94265912 93394720 92689024 92148096 91771664 91559328 
2945.012 91510272 91621840 91887304 92295312 92826656 93457456 94159176 
2948.387 94900288 95651952 96387264 97082264 97717168 98272592 98729520 
2951.762 99070208 99277456 99337728 99241896 98985680 98568592 97992648 
2955.138 97260752 96377216 95348320 94184280 92898584 91509336 90034288 
2958.513 88487576 86877752 85206568 83470272 81663744 79783384 77830552 
2961.888 75810736 73732736 71607096 69444504 67254592 65048428 62837860 
2965.263 60635704 58455732 56309464 54205208 52147452 50137400 48174780 
2968.639 46259908 44394952 42583572 40830604 39139612 37512756 35950168 
2972.014 34450892 33014190 31640094 30330444 29087722 27913450 26807504 
2975.389 25766806 24785704 23856550 22970986 22122226 21305084 20516850 
2978.764 19757020 19027006 18328320 17662332 17029616 16429614 15860992 
2982.140 15322356 14812774 14331697 13879581 13456644 13062047 12694010 
2985.515 12348850 12022087 11709525 11408550 11119034 10842995 10583902 
2988.890 10344304 10125052 9923844 9735944 9555339 9376842 9197299 9016817 
2992.748 8837053 8660777 8489538 8322927 8159148 7995499 7830460 7664945 
2996.605 7502493 7348358 7207113 7081777 6971627 6873422 6781196 6689899 
3000.462 6596063 6499490 6403006 6311116 6228589 6157873 6098796 6048126 
3004.320 6000721 5950500 5893365 5826902 5751954 5670910 5587464 5505108 
3008.177 5425586 5349566 5276647 5206220 5138287 5074252 5015892 4964744 
3012.035 4921445 4883880 4848128 4809229 4762964 4707292 4642818 4573365 
3015.892 4503890 4438509 4379599 4326753 4277260 4228140 4177120 4124432 
3019.750 4071785 4022856 3980520 3946380 3919631 3898000 3877874 3856044 
3023.607 3830036 3798582 3761983 3721010 3677433 3633727 3593701 3560494 
3027.464 3537677 3526487 3525986 3531965 3537878 3536976 3523748 3496257 
3031.322 3456678 3410924 3366110 3328612 3301735 3284875 3274692 3266413 
3035.179 3256097 3241542 3223383 3203388 3183962 3165938 3148516 3128625 
3039.037 3102627 3066755 3019373 2960721 2893772 2823330 2754301 2691884 
3042.894 2639810 2599842 2572510 2556744 2550912 2552812 2560977 2573676 
3046.751 2589242 2606409 2622842 2636510 2645410 2647344 2641043 2625909 
3050.609 2602108 2571110 2535414 2498388 2463331 2433642 2411851 2398091 
3054.466 2390528 2385264 2377568 2362642 2338323 2305045 2266407 2227306 
3058.324 2192770 2165930 2147449 2135462 2127037 2120312 2115051 2113453 
3062.181 2118147 2131533 2152910 2178151 2199797 2209921 2201962 2173189 
3066.039 2125273 2064644 1999962 1939251 1889264 1853691 1832927 1825141 
3069.896 1826805 1833560 1840514 1843608 1839150 1825674 1803481 1775101 
3073.753 1744460 1715585 1691568 1673374 1659936 1648927 1638084 1626610 
3077.611 1615136 1605525 1599705 1598075 1598873 1598674 1593186 1579452 
3081.468 1556939 1527977 1497221 1470357 1452205 1445223 1449612 1463275 
3085.326 1482492 1503339 1523022 1539515 1552084 1560963 1566948 1570407 
3089.183 1571537 1569509 1562193 1546697 1520429 1481827 1431228 1372025 
3093.041 1309873 1252216 1206893 1179648 1173568 1188187 1219519 1261121 
3096.898 1306317 1348227 1380667 1399747 1402041 1386085 1352049 1302561 
3100.755 1242313 1178419 1119317 1072679 1044513 1037671 1051388 1080286 
3104.613 1116693 1152305 1178917 1190911 1186725 1168285 1140910 1111079 
3108.470 1085268 1068494 1063013 1069192 1086364 1113404 1149714 1194533 
3112.328 1245935 1299537 1348326 1382828 1394263 1377476 1333304 1269794 
3116.185 1200447 1141475 1105099 1097957 1117822 1155860 1198885 1235103 
3120.042 1257300 1263647 1257632 1245204 1231879 1220881 1211843 1202706 
3123.900 1190944 1174797 1154564 1131774 1108454 1086829 1068195 1054178 
3127.757 1045841 1044613 1051222 1064541 1081548 1096861 1104402 1099186 
3131.615 1079422 1047502 1010204 976496 954679 950196 964010 992935 1030530 
3135.954 1070321 1106328 1134598 1153634 1163335 1165229 1160976 1154066 
3139.812 1148020 1146491 1153136 1169382 1194333 1224735 1255040 1279365 
3143.669 1292791 1292990 1280561 1258928 1232644 1207491 1187987 1177189 
3147.527 1176292 1184565 1199450 1217027 1233109 1243310 1244274 1235269 
3151.384 1217425 1194101 1169947 1149548 1135960 1130346 1131143 1135661 
3155.241 1139814 1140512 1135595 1124964 1110016 1093473 1078891 1069158 
3159.099 1066800 1072380 1085368 1103405 1123204 1141375 1155295 1163634 
3162.956 1166757 1166093 1164033 1162471 1162837 1165760 1171275 1179050 
3166.814 1188519 1198785 1208055 1214369 1215332 1209085 1195463 1176492 
3170.671 1156458 1140844 1135196 1142837 1164199 1196393 1234737 1272951 
3174.529 1305652 1328152 1337425 1331243 1308477 1268964 1214967 1150544 
3178.386 1083375 1021762 974039 946377 940134 952520 977194 1006651 1034350 
3182.726 1056072 1071018 1080684 1087361 1093008 1098290 1103173 1107092 
3186.583 1110149 1112939 1116427 1121111 1126027 1129250 1128021 1120579 
3190.440 1106561 1087361 1066734 1048698 1036143 1030663 1031693 1036475 
3194.298 1041723 1043483 1039464 1027607 1008345 982806 953815 924528 898563 
3198.637 879073 868017 866025 872001 884352 900256 916924 931435 940566 
3202.977 941529 931767 909420 874956 830868 782469 736166 699027 675564 
3207.317 667733 673938 690399 712236 735402 757508 777556 795647 811514 
3211.656 824228 831897 833092 827780 818386 808029 800858 799033 802452 
3215.996 807962 811248 808958 799398 784161 767532 754653 749973 755649 
3220.335 770884 792925 818419 844114 868316 889997 909121 924495 934988 
3224.675 938507 932896 916625 889797 853343 810585 765142 721463 683595 
3229.015 654359 634848 624263 619783 617162 612417 602098 584645 560990 
3233.354 533819 507578 486514 475037 476231 491722 521411 562980 611753 
3237.694 661229 704072 733876 746554 742737 727105 707723 692655 688076 
3242.033 695045 710178 726010 734738 731386 714758 688408 658109 629704 
3246.373 605980 586736 569483 552065 533852 517596 507346 506948 517596 
3250.713 536605 557539 573763 580034 575057 562947 551302 549113 562615 
3255.052 594234 641219 697268 753159 801423 835881 853874 855667 844745 
3259.392 825623 802950 781174 762287 746919 733311 719438 703309 684326 
3263.731 663452 643177 626154 613578 605051 598149 590385 580564 570346 
3268.071 564108 568222 587134 621708 667600 715821 755582 777755 778817 
3272.411 761988 736099 712103 699525 702446 717281 735767 748114 746554 
3276.750 728333 696671 658541 622073 592011 569848 552331 535079 513981 
3281.090 488604 462067 440508 429994 434073 452349 479813 509436 534184 
3285.429 550307 557838 560592 564009 573265 590750 614673 640422 662158 
3289.769 674503 674270 661826 640688 616199 594035 579337 575289 582522 
3294.109 599178 621177 642911 658109 661594 650510 625358 590385 553060 
3298.448 521544 502801 500579 514545 540487 571440 600605 622968 635876 
3302.788 640024 638232 634250 631430 632060 636839 645168 655289 664779 
3307.127 671383 673507 670719 664315 657346 654028 658507 673607 699359 
3311.467 732448 766967 795647 811248 809323 788875 752396 705665 654890 
3315.807 606610 565435 533918 512886 501773 499617 505886 520085 541947 
3320.146 570545 603956 638199 667998 688009 693253 681538 654625 617892 
3324.486 578706 545264 523601 515772 519521 529904 540852 547785 549345 
3328.825 547155 545264 547155 555018 568123 584645 601434 617129 632127 
3333.165 648121 667268 689868 714327 736298 750969 753923 743368 720898 
3337.505 690764 658574 630136 610559 603491 610857 634250 672611 723454 
3341.844 782137 841458 893549 931833 952056 954081 941728 921075 898928 
3346.184 879936 866357 857261 850056 841591 830270 816162 801057 786883 
3350.523 775133 766370 759267 751533 741476 727603 710311 691793 675332 
3354.863 664713 663585 673142 692755 718874 745758 767299 778518 777025 
3359.203 763383 740978 715024 689868 668231 650742 635810 621641 607241 
3363.542 593471 582721 578176 581261 591912 607075 623035 635047 640688 
3367.882 638929 630733 617726 601534 583086 562748 541250 520018 501740 
3372.221 489665 486978 495338 514545 542577 575853 610857 644305 673540 
3376.561 696671 712070 718442 715422 703873 685885 665543 647225 634980 
3380.901 630965 634051 640986 646794 646827 637801 619683 595959 572104 
3385.240 554620 549544 559629 585077 622106 665343 707889 743335 767532 
3389.580 778352 776693 764943 746455 723753 698430 671184 641683 610293 
3393.919 578740 549378 525857 511128 506649 511327 522075 534316 543771 
3398.259 548283 548051 545861 545662 550705 562516 579835 599178 615204 
3402.599 623201 619982 605416 582290 555449 530402 511095 499484 494740 
3406.938 493546 492054 487542 479780 470791 464986 466346 477027 495105 
3411.278 515175 529539 531231 516203 485817 446412 408270 380877 371525 
3415.617 381606 406977 438949 467706 485220 487012 473810 450657 425815 
3419.957 406745 399283 405086 420873 439314 451752 450094 429132 388670 
3424.297 333887 273839 219866 182374 168784 180883 215557 265551 322613 
3428.636 379252 431354 478122 520549 559928 596855 629605 655355 671416 
3432.976 676029 670587 658740 645831 637071 636474 645333 662324 683396 
3437.315 703508 717414 721197 713265 694680 669226 641584 617394 600771 
3441.655 593338 593338 597088 599277 595595 584314 566762 546923 530435 
3445.995 522108 524662 537468 556544 575754 590385 596822 593902 583053 
3450.334 566597 547984 530136 516170 508175 508043 515905 530966 549942 
3454.674 568289 581128 583252 572038 546923 511161 470459 432316 404489 
3459.013 392948 401173 429165 473544 527648 583219 631828 666505 682998 
3463.353 680907 663618 636208 605383 577114 555880 544037 541548 546890 
3467.693 557506 570744 584181 595429 602695 603923 597386 582422 559563 
3472.032 531231 501375 474606 455633 447241 450359 462930 481372 500214 
3476.372 515407 523734 523999 517066 505024 491058 478089 469033 466081 
3480.711 470095 480775 495868 511725 523734 528245 523203 509071 489599 
3485.051 470990 460044 462830 482600 518260 563876 610227 648088 669425 
3489.391 670421 651605 617460 574791 530368 490793 460774 443128 438717 
3493.730 446611 464290 487343 511161 530501 541383 541913 532492 515142 
3498.070 493281 470459 449297 432316 421868 421105 433410 461570 506483 
3502.409 564639 627680 684226 722657 735502 720865 683994 633620 579071 
3506.749 527880 483661 445649 410492 375139 339027 305404 279907 269098 
3511.089 276260 299800 332925 365887 388968 394407 379683 347549 305205 
3515.428 262003 227425 209192 210783 232630 270623 318534 368208 411222 
3519.768 441602 455401 452614 435765 410559 383132 359487 342442 332130 
3524.107 325431 318335 307526 292108 273541 255207 240686 232464 229878 
3528.447 229911 227756 218772 200208 171867 136765 99943 66670 41949 28661 
3533.269 27502 36979 54674 76678 100010 121950 141306 157812 172430 186186 
3538.091 200208 215292 232165 250764 271419 293832 317573 341248 363433 
3542.430 381573 392219 391787 376698 343901 292108 222784 140809 54707 
3546.770 -25247 -88094 -125824 -134238 -113767 -68813 -6792 63124 132390 
3551.109 192916 239592 270690 288527 296219 297247 293235 284349 270524 
3555.449 252654 234055 219667 214827 223049 243769 272248 299900 316445 
3559.789 314721 292440 254643 211214 174353 154133 154995 175181 207435 
3564.128 241415 265915 273077 260312 233193 203192 183866 183269 200374 
3568.468 227093 253914 274370 285974 289621 287798 283686 279476 275895 
3572.807 272115 267474 260644 252057 242874 234950 230044 228088 227922 
3577.147 227193 223745 216286 204452 189501 172861 155691 138522 121254 
3581.487 103390 85295 68228 53514 43208 38205 39033 45528 57822 76612 103523 
3586.791 139781 183501 228220 265219 285643 285344 265252 230740 189800 
3591.130 151548 125231 116879 128777 158310 198717 240420 276061 302088 
3595.470 319496 331698 341845 350766 356701 356867 349771 336042 319662 
3599.809 306167 300729 305006 317075 331466 342310 345725 341414 331831 
3604.149 320889 312069 307261 306067 306797 307858 308786 312566 323409 
3608.489 343669 372520 404722 433078 451055 455898 449297 438319 432216 
3612.828 440442 467341 509834 558203 600970 629605 639825 632127 610326 
3617.168 580863 550075 523767 505455 495570 492286 493215 496300 499749 
3621.507 501906 500313 491855 474241 446080 408801 366517 326758 298607 
3625.847 291180 312566 367678 456628 568289 679381 759267 788045 770054 
3630.187 727370 682069 646362 624130 613147 608667 605051 598581 587996 
3634.526 575422 564307 557274 554255 552629 547586 533951 508706 472251 
3638.866 428402 383629 344399 315616 298706 292572 293865 298971 304873 
3643.205 310742 317672 327421 342542 364726 395004 433476 478520 526553 
3647.545 572038 606278 619916 605051 558203 485021 398321 314058 243205 
3651.885 191656 159039 142035 136301 138058 143891 151382 158608 164574 
3656.224 168817 171038 171403 169646 165469 159205 151614 143991 138787 
3660.564 138588 145747 161492 185855 216419 249438 280139 303945 317308 
3664.903 319363 311505 297280 281332 268302 261904 263130 270292 278116 
3669.243 279973 270590 251460 230110 215955 215258 230342 260113 300928 
3673.583 345294 381275 391821 362405 294528 211081 141372 101832 96132 
3677.922 118437 160166 210452 258522 295656 316644 321452 313760 299966 
3682.262 285941 276425 274105 279111 289953 303879 317838 329178 336208 
3686.601 338131 336407 334849 339093 355275 385287 423526 457590 474805 
3690.941 465318 427274 366915 295623 226132 169248 131926 116050 119564 
3695.281 137229 162950 191324 219038 245924 273010 301458 331599 361875 
3699.620 389333 410293 421337 420608 407972 384956 353584 315683 272878 
3703.960 227093 181645 140477 108295 89935 88311 105113 140179 191888 258389 
3708.781 336938 422996 509071 583385 632525 644338 615370 553160 473179 
3713.121 391091 317938 258323 211744 175115 144819 118602 95734 76612 62163 
3717.943 52354 46555 43242 41949 43904 52620 72735 107897 157879 216916 
3722.765 276160 324901 355972 367247 361974 347648 332925 326095 331168 
3727.104 348411 374808 406446 440010 472516 501773 524828 537833 537368 
3731.444 521345 490826 451387 410691 375935 351064 336507 329278 325365 
3735.783 322182 318965 316910 316445 316843 316611 315053 312102 309681 
3740.123 310875 318965 336175 362803 395966 429364 453410 455168 425450 
3744.463 367280 297015 234221 189534 164674 156619 162221 179192 206739 
3748.802 243305 286505 332594 376997 416429 449563 475568 493347 500844 
3753.142 494873 473876 436959 385320 321850 252024 182838 121950 77408 54276 
3757.964 54409 75983 114559 164210 218806 272679 321585 362903 396032 421337 
3762.785 440342 454405 464522 470857 472450 468138 457457 441802 424322 
3767.125 409928 403329 408768 428369 460276 498290 533752 557672 564672 
3771.465 553757 525956 483960 430558 369137 304409 243205 193313 161724 
3775.804 153669 169778 206871 257295 311571 359785 394540 413278 419115 
3780.144 418452 416628 415567 413842 407839 393943 370066 337767 302022 
3784.483 269794 248642 243437 254676 279874 314124 352158 388902 420343 
3788.823 442863 454837 455666 446080 428933 407839 387509 372321 365224 
3793.163 367910 379517 397823 418684 437224 448700 450027 442034 428833 
3797.502 416429 409995 412184 422830 438485 452515 456230 441337 405982 
3801.842 357398 308421 270126 246620 237337 239757 251361 270126 293998 
3806.181 320093 344100 361344 368872 367479 360349 352258 347781 350003 
3810.521 359984 376400 395701 413344 425317 429828 427938 423659 422133 
3814.861 428966 446379 471023 495205 511725 517696 514644 506716 497958 
3819.200 491191 486912 483164 476364 463991 446644 427705 410592 396663 
3823.540 385519 375836 366219 356370 347449 341713 341713 348743 362704 
3827.879 381275 402599 424687 446744 467839 487343 503365 512985 513947 
3832.219 505853 491092 474473 462698 461238 473644 499550 534980 572403 
3836.559 603359 621044 622603 610161 588096 561454 532724 502071 468701 
3840.898 433510 399283 371558 356502 359321 381507 420243 468071 515706 
3845.238 555283 581460 591779 586736 568919 541084 507246 471654 437556 
3849.577 407939 384060 365522 350699 337435 325133 316545 319098 340221 
3853.917 380644 432282 484690 529307 561454 579204 582655 574360 557606 
3858.257 536937 516037 498091 485054 477458 475335 478089 485187 495802 
3862.596 508971 523501 537468 548416 553624 551435 541947 526819 508640 
3866.936 490495 475634 467607 470459 486680 516303 552331 584679 604785 
3871.275 608900 598050 575787 546193 513549 482169 455334 434438 418817 
3875.615 406247 395402 385652 377693 373315 374310 382004 396066 413709 
3879.955 429828 439413 439712 432448 422133 414771 415169 426843 450823 
3884.294 484988 522373 552563 565369 555748 526122 483761 436959 391257 
3888.634 351197 319894 298905 289588 291810 303846 322314 343735 365290 
3892.973 384823 401206 413842 421901 425085 423361 417490 409232 401173 
3897.313 396198 397094 405517 420939 441072 461470 478055 488172 491556 
3901.653 490130 487376 487343 493513 507545 528942 554852 580863 602496 
3905.992 616199 619252 610293 589357 557606 517630 473876 431387 395236 
3910.332 369435 355939 354579 362670 376300 391986 406844 419347 429165 
3914.671 436296 440044 439214 431884 417125 394905 367777 338927 311870 
3919.011 288726 269861 253980 239525 224905 210153 196860 188507 188739 
3923.351 200440 224408 258190 296949 334285 365788 388770 403329 410625 
3927.690 411686 407342 397724 382800 362604 337800 309748 280769 253151 
3932.030 229547 212772 205645 209855 226497 255538 294495 339259 383596 
3936.369 420508 443460 447639 432747 402002 362803 323740 293633 279011 
3940.709 283587 307625 346620 393412 437755 470393 485287 481240 461172 
3945.049 431951 401803 378423 367545 372155 390560 417291 443924 463228 
3949.388 470493 465948 453510 439214 428535 424687 428369 437954 450326 
3953.728 462665 472881 479349 480974 476563 464555 443825 414041 377494 
3958.067 338596 303348 278348 268170 273839 292804 319629 346886 368839 
3962.407 382734 389333 392185 395137 400974 409199 417026 420077 414605 
3966.747 399117 375902 349505 327189 315351 318203 336407 367081 404954 
3971.086 443692 477624 502669 516800 519321 511692 495935 474971 452084 
3975.426 430823 413742 402831 398851 400742 406612 413975 420608 425085 
3979.765 427573 429430 432780 440110 453510 474307 501972 535245 570976 
3984.105 605980 636241 658209 669591 669657 659702 642911 624097 607672 
3988.445 597718 595959 601534 611123 620214 624030 619186 605117 583351 
3992.784 557705 531961 510232 494840 486282 483927 486348 492319 501309 
3997.124 513284 528610 546757 566663 585906 601102 609397 608701 
##END=
