##TITLE=mb_1 01 12:49:13 2026 (GMT+02:00)
##JCAMP-DX=5.01  $$ Nicolet v. 970
##DATATYPE=INFRARED SPECTRUM
##ORIGIN=Vojna akademija
##OWNER=Nicolet
##LONGDATE=2026/09/01
##TIME=12:49:43
##SPECTROMETER/DATA SYSTEM=Nicolet iS20
##DATA PROCESSING=
Ratio against background
%Transmittance->Absorbance
Truncated
ElementMultiply or ElementDivide
##COMMENTS=
Number of sample scans: 8
Collection length: 11,90 sec
Sample gain: 8,0
Background collected on: Tue Sep 01 12:38:26 2026 (GMT+02:00);
Number of background scans: 8
Background gain: 8,0
Sample spacing:  1,000
Number of scan points: 12415
Resolution points: 8286
Number of FFT points: 65536
Apodization: N-B strong;
Phase correction: Mertz;
Laser frequency: 15798,00 cm-1
Number of rejected sample scans: 0
Number of rejected background scans: 0
Bench serial number: BER2010005;
##RESOLUTION= 4,000
##XUNITS=1/CM
##YUNITS=ABSORBANCE
##FIRSTX=400.156891
##LASTX=4000.123047
##FIRSTY=0.005461
##MAXX=4000.123047
##MINX=400.156891
##MAXY=0.176819
##MINY=-0.003133
##XFACTOR=1.000000
##YFACTOR=1.000000E-009
##NPOINTS=7468
##DELTAX=0.482117
##ZPD=6100
##XYDATA=(X++(Y..Y))
400.157 5461486 5157868 4836535 4527694 4131356 3504708 2558777 1305719 
404.014 -106115 -1440529 -2421497 -2872972 -2793309 -2375991 -1902492 
407.389 -1633843 -1693323 -2026184 -2418137 -2584140 -2293139 -1446638 
410.763 -125791 1453634 2998487 4239015 4978687 5127188 4724274 3909568 
414.620 2882097 1829500 927749 317208 108693 382701 1158916 2350516 3719907 
418.959 4968230 5910830 6576586 7106363 7612406 8095646 8459738 8542521 
422.816 8183931 7303271 5954799 4352121 2796551 1583343 872400 667600 845043 
427.155 1229620 1646133 1974599 2179383 2292654 2389861 2543246 2793450 
431.012 3125154 3478488 3767665 3923777 3908899 3722313 3386212 2930331 
434.869 2378167 1745991 1052717 336905 -340054 -891781 -1233681 -1302697 
438.726 -1079126 -599014 41817 704769 1254974 1593053 1702379 1659271 
442.583 1612442 1715153 2054323 2617642 3298062 3943036 4405739 4602833 
446.440 4529435 4260261 3908264 3588122 3361268 3219744 3100392 2920490 
450.297 2613242 2158204 1605957 1077861 748181 773838 1249823 2163532 
454.154 3401540 4759112 5984428 6824446 7045338 6521824 5311327 3713256 
458.011 2169893 1098489 705565 929940 1536655 2238596 2806322 3086743 
461.868 3042630 2734228 2294952 1865637 1551286 1405565 1438209 1641876 
465.725 2011214 2539747 3202921 3933641 4626710 5144892 5369124 5235899 
469.582 4758911 4028641 3200417 2467497 1998132 1897018 2157272 2661646 
473.439 3218209 3639675 3810147 3694375 3338195 2840506 2337024 1962217 
477.296 1821182 1959820 2342954 2863586 3374057 3741930 3872492 3743835 
481.152 3405981 2970830 2570276 2312840 2257813 2395226 2656712 2937203 
485.009 3136735 3179623 3034755 2714256 2261577 1740368 1221911 788443 
488.866 516336 465418 663020 1090616 1677964 2311207 2865254 3223249 3315323 
493.205 3142842 2773708 2318236 1891261 1592688 1477937 1553847 1778228 
497.062 2075331 2354747 2538214 2584242 2491756 2295685 2049862 1814860 
500.919 1632962 1514544 1431627 1333171 1165727 896737 528113 91525 -360448 
505.258 -771271 -1082332 -1242701 -1214782 -977380 -533759 86455 826087 
509.115 1614571 2373836 3028349 3521175 3817435 3911473 3825858 3603190 
512.972 3294089 2944041 2594509 2280929 2035015 1883540 1838750 1885770 
516.829 1977994 2050462 2038211 1907701 1675669 1409188 1200812 1128785 
520.686 1233541 1496024 1849199 2196667 2452035 2556911 2497588 2303280 
524.543 2037345 1774435 1574996 1475743 1478935 1561428 1686546 1818919 
528.400 1931197 2003990 2028890 2008218 1956858 1900878 1872026 1896585 
532.257 1983452 2119646 2273368 2406920 2488790 2509952 2485525 2448370 
536.114 2429510 2444405 2483425 2519750 2520816 2469829 2375069 2272036 
539.971 2205125 2210987 2303546 2468796 2672881 2880196 3070492 3245248 
543.828 3419573 3605862 3792833 3936683 3971124 3824755 3458748 2888768 
547.685 2191671 1480397 882427 506915 410194 592807 999809 1548892 2149613 
552.024 2731660 3252091 3687993 4030848 4275955 4419195 4457724 4392418 
555.881 4230549 3984432 3671318 3311751 2927395 2544546 2192837 1902276 
559.738 1702346 1611478 1631565 1742132 1903707 2065975 2182513 2228072 
563.594 2205292 2144852 2090945 2090879 2174222 2342754 2568677 2804154 
567.451 2992882 3084641 3051872 2893838 2637343 2327130 2018837 1763756 
571.308 1598474 1542208 1590326 1720475 1895121 2075198 2228771 2337757 
575.165 2402056 2436907 2464264 2501054 2553678 2615342 2671147 2704620 
579.022 2705220 2671814 2611042 2533481 2450036 2368739 2294952 2235332 
582.879 2200530 2204426 2260977 2376735 2545346 2743564 2939638 3101326 
586.736 3204923 3241609 3217207 3144110 3033887 2890903 2712288 2491856 
590.593 2230236 1943345 1663994 1438076 1307779 1297144 1404235 1601833 
594.450 1845039 2080857 2265807 2366674 2369239 2276832 2106327 1880945 
598.307 1625113 1364812 1122905 921905 782137 717812 735867 832129 992005 
602.646 1188054 1384091 1541876 1625845 1616200 1515375 1350088 1162903 
606.503 1001503 904108 883755 925723 990942 1034649 1018939 930206 783863 
610.842 618788 481704 410459 421769 506052 634449 768627 879505 950030 
615.181 981278 986094 983703 989448 1011898 1051089 1102807 1162704 1229587 
619.520 1306616 1399647 1513945 1650889 1803946 1957757 2090912 2176952 
623.377 2192171 2122676 1968175 1744161 1479034 1209418 966999 776029 648419 
627.716 586669 590385 660731 801257 1014821 1295915 1625745 1969539 2286458 
632.055 2536414 2691817 2745598 2709154 2607575 2466730 2307110 2138192 
635.912 1961318 1776831 1589695 1410185 1251052 1117390 1003263 888901 
639.769 751765 574393 358459 126424 -80143 -215715 -247341 -164048 18754 
644.108 263893 522606 751201 918883 1012496 1037937 1014954 974238 948370 
648.447 972080 1070188 1253312 1510620 1811599 2110156 2354014 2502087 
652.304 2532181 2447503 2271936 2041640 1790871 1542408 1308411 1094636 
656.161 909121 768693 696737 715223 833822 1039830 1294818 1542940 1730788 
660.500 1819219 1800020 1694861 1548759 1411049 1317716 1283685 1297510 
664.357 1331642 1353644 1340051 1281924 1192140 1105299 1082246 1181874 
668.214 1413975 1710762 1972701 2134529 2185211 2149613 2065510 1971037 
672.071 1896153 1859647 1865138 1902742 1954861 2006487 2053525 2100401 
675.928 2154142 2214783 2268039 2287458 2244291 2121710 1928035 1701647 
679.785 1501743 1385421 1390606 1515042 1718080 1931230 2088115 2144485 
683.642 2094208 1969306 1829134 1736077 1729823 1819451 1981289 2172989 
687.498 2344286 2457733 2497955 2471562 2400756 2313706 2234832 2178118 
691.355 2147982 2142554 2157339 2192004 2251052 2344819 2485591 2682649 
695.212 2936202 3234933 3557587 3876871 4165979 4408819 4601427 4754020 
699.069 4884752 5016026 5163769 5334170 5523296 5720931 5915902 6100779 
702.926 6274573 6441241 6607502 6779143 6959607 7150554 7353649 7571675 
706.783 7807115 8060067 8323940 8585439 8826401 9030180 9191783 9324027 
710.640 9461560 9651951 9949406 10397446 11016726 11801408 12720826 13730246 
714.497 14779486 15829857 16860764 17869886 18868346 19871224 20889042 
717.872 21921238 22953448 23959092 24904326 25748454 26453344 26987142 
721.247 27328508 27472428 27430144 27225944 26888538 26445772 25920552 
724.621 25328240 24685034 24008360 23319416 22641372 21992302 21381096 
727.996 20807174 20264072 19746270 19255406 18801010 18398176 18058368 
731.371 17782130 17555848 17354824 17151894 16925526 16669633 16394172 
734.746 16122051 15878795 15687201 15561076 15502835 15506303 15557435 
738.121 15637152 15720455 15778657 15782919 15707606 15538856 15280929 
741.496 14957886 14606400 14268553 13978939 13753399 13589988 13470622 
744.870 13371791 13271342 13157699 13029575 12893297 12754946 12616639 
748.245 12472750 12313399 12127664 11910439 11666603 11410863 11164146 
751.620 10948217 10779303 10662098 10587704 10535286 10480362 10400535 
754.995 10283501 10130683 9955880 9780573 9623528 9497966 9406129 9342511 
758.852 9298299 9267259 9248812 9245258 9257748 9281408 9303039 9305036 
762.709 9271422 9196318 9087831 8968816 8866405 8801819 8782309 8798472 
766.566 8830830 8859709 8878038 8895861 8937732 9027677 9178145 9375588 
770.423 9582403 9740653 9794434 9707176 9474463 9125964 8717161 8314551 
774.279 7972549 7726091 7583745 7530744 7538397 7574608 7615778 7647004 
778.136 7663967 7668014 7660865 7640867 7602358 7537150 7438312 7304046 
781.993 7139539 6955668 6767701 6588461 6424595 6273767 6126385 5969882 
785.850 5793993 5596761 5386736 5182278 5004696 4875068 4807554 4807018 
789.707 4869037 4981436 5127691 5288084 5443938 5580751 5688265 5764176 
793.564 5812159 5841140 5859276 5871299 5873180 5855850 5806753 5720461 
797.421 5603876 5481652 5388212 5359831 5418674 5562863 5762799 5969580 
801.278 6134652 6223177 6229799 6180694 6126317 6121075 6203515 6386395 
805.135 6650633 6953816 7241645 7469491 7608630 7654289 7620904 7538127 
808.992 7439727 7356446 7312335 7319175 7374476 7463491 7562672 7644576 
812.849 7684674 7670678 7604549 7503707 7393956 7303372 7251416 7243667 
816.706 7270890 7312672 7345056 7345326 7300878 7209202 7077937 6919711 
820.563 6750739 6585467 6434179 6302476 6191347 6098259 6019938 5955001 
824.420 5905356 5874859 5868209 5885842 5921881 5962996 5990072 5983453 
828.277 5930883 5830226 5694006 5543700 5406496 5303646 5245960 5231103 
832.133 5245724 5270542 5286474 5281711 5253371 5207293 5154850 5110760 
835.990 5089069 5100233 5150759 5241164 5365501 5510745 5659630 5791172 
839.847 5884800 5926650 5911099 5844432 5742351 5628446 5527524 5461620 
843.704 5446824 5489538 5586020 5723046 5882181 6041373 6180290 6284389 
847.561 6346182 6367163 6355226 6323454 6284087 6247950 6222035 6209766 
851.418 6212825 6231513 6263816 6304560 6342685 6363598 6348401 6281162 
855.275 6154815 5976029 5765183 5553768 5377276 5263097 5225033 5258838 
859.132 5344233 5450112 5544706 5606729 5628983 5621330 5605521 5609180 
862.989 5654293 5749738 5887756 6045136 6188995 6286507 6317571 6278574 
866.846 6187180 6073494 5974618 5917346 5911334 5943714 5986242 6002737 
870.703 5962559 5851853 5678026 5467123 5253103 5072106 4951406 4905461 
874.560 4939207 5048842 5227011 5462258 5740639 6040231 6329674 6572617 
878.417 6730615 6773725 6692288 6500500 6236723 5953657 5712236 5560178 
882.274 5523866 5599782 5756957 5943647 6100980 6183584 6165066 6049772 
886.131 5867907 5671178 5514269 5438838 5465714 5586524 5769951 5969546 
889.987 6142684 6258270 6307115 6300055 6262001 6220118 6193936 6191617 
893.844 6208657 6233530 6253463 6260623 6253598 6235849 6211010 6180794 
897.701 6142549 6092445 6026758 5947443 5860787 5777439 5706193 5650130 
901.558 5602567 5550378 5475512 5364159 5212558 5031009 4842432 4675841 
905.415 4560909 4517751 4552203 4654808 4804706 4974766 5136979 5270979 
909.272 5364930 5419077 5443032 5453232 5467694 5499974 5556083 5631635 
913.129 5713377 5781569 5818876 5815048 5771932 5702601 5628446 5572159 
916.986 5548599 5561789 5603507 5659463 5713881 5757394 5789729 5817499 
920.843 5848965 5887924 5929438 5961518 5969277 5942706 5882751 5804100 
924.700 5731574 5690179 5699143 5762799 5869250 5992591 6103064 6173367 
928.557 6187214 6143927 6058071 5956210 5868948 5827069 5854036 5960644 
932.414 6142549 6380276 6643332 6892745 7093227 7217119 7251011 7197445 
936.271 7073862 6906817 6723279 6547993 6397761 6280423 6198439 6149169 
940.128 6127830 6128200 6143893 6168359 6194843 6218740 6236790 6247143 
943.985 6249496 6243547 6229194 6207245 6181601 6160192 6155992 6184256 
947.841 6257564 6380847 6545807 6732197 6908735 7041633 7104780 7085885 
951.698 6991089 6843093 6675665 6522194 6409127 6350653 6346182 6383403 
955.555 6442721 6504569 6552265 6576821 6577528 6561044 6538003 6520075 
959.412 6516712 6532218 6565350 6610429 6660020 6707329 6748619 6783384 
963.269 6813877 6842252 6869315 6893115 6910082 6916681 6911126 6894899 
967.126 6871874 6846695 6822191 6798092 6770360 6733341 6681083 6609890 
970.983 6520445 6418609 6314579 6222505 6158983 6139423 6174980 6268254 
974.840 6410639 6580623 6747273 6878438 6946005 6936611 6855110 6724861 
978.697 6578234 6447429 6354285 6302476 6279213 6259917 6220824 6145204 
982.554 6030823 5887856 5735401 5591626 5469472 5373351 5301835 5251795 
986.411 5223792 5223524 5261051 5344837 5475914 5643014 5822167 5982345 
990.268 6090732 6123932 6074066 5951709 5782509 5602164 5448334 5348527 
994.125 5316996 5350942 5434544 5541854 5645868 5726303 5771025 5780360 
997.982 5764109 5738020 5717406 5713478 5730130 5763269 5801951 5832812 
1001.839 5843458 5826868 5783382 5721602 5657113 5608072 5590451 5613543 
1005.695 5676113 5765855 5861526 5940422 5981270 5973242 5917380 5827305 
1009.552 5723650 5627808 5557258 5519705 5513027 5527759 5551922 5575314 
1013.409 5593102 5607132 5624721 5655669 5707838 5785464 5885842 6000385 
1017.266 6114119 6210371 6272120 6285801 6245227 6152194 6017150 5855078 
1021.123 5683834 5518531 5369392 5242673 5141807 5070129 5032987 5037076 
1024.980 5087963 5185933 5322866 5479941 5630326 5747488 5810212 5811857 
1028.838 5762127 5685747 5613778 5574140 5584644 5646472 5745105 5854507 
1032.695 5948451 6004518 6011875 5972200 5897798 5806048 5713243 5630930 
1036.553 5561923 5500074 5433067 5346950 5231237 5083236 4911124 4734725 
1040.410 4580766 4475634 4439213 4476505 4574303 4702435 4824340 4906432 
1044.267 4929187 4895441 4829700 4771473 4758777 4819649 4957841 5153743 
1048.125 5367312 5553902 5676885 5717037 5678530 5585920 5474673 5376772 
1051.982 5314782 5294490 5306732 5334237 5358691 5368520 5361442 5343361 
1055.840 5324275 5312736 5311495 5316191 5316091 5299923 5258536 5189487 
1059.697 5097619 4994608 4893967 4808090 4744674 4705885 4689372 4690946 
1063.555 4708464 4743032 4799212 4881535 4990954 5121556 5259710 5384790 
1067.412 5475109 5513631 5492088 5414682 5295999 5158672 5024171 4909281 
1071.269 4821492 4758174 4709837 4663650 4610267 4545205 4471516 4397840 
1075.127 4336257 4296601 4285458 4302324 4341043 4391681 4443497 4489059 
1078.984 4525685 4555418 4583043 4613114 4647373 4683310 4716068 4741157 
1082.842 4757738 4770133 4786950 4817103 4865384 4927478 4989379 5029869 
1086.699 5027455 4965650 4840053 4659296 4444033 4218572 4006369 3824187 
1090.557 3679304 3572787 3501368 3460652 3446124 3453739 3478922 3516399 
1094.414 3561696 3611208 3664902 3723315 3786884 3851096 3905021 3930197 
1098.271 3905389 3815028 3654009 3433934 3180958 2931098 2715723 2555045 
1102.129 2451669 2392660 2355913 2321601 2281262 2242493 2225940 2256181 
1105.986 2353981 2524716 2755401 3016537 3272522 3489877 3645990 3734912 
1109.844 3764022 3749751 3709480 3658052 3603591 3547832 3490245 3431462 
1113.701 3375326 3330782 3308045 3315958 3357795 3429592 3519004 3609437 
1117.558 3684183 3729197 3737887 3711485 3658520 3590962 3521009 3459283 
1121.416 3412159 3383741 3376194 3391121 3429659 3490746 3570516 3659589 
1125.273 3744571 3811083 3846316 3845079 3811217 3758340 3704467 3668177 
1129.131 3662129 3689764 3745473 3816532 3890311 3955408 4006369 4043189 
1132.988 4069678 4090816 4111989 4138281 4174711 4225732 4294961 4383113 
1136.846 4485477 4591749 4688133 4759548 4795829 4794455 4762194 4712316 
1140.703 4661272 4624265 4610100 4622692 4660837 4721427 4801892 4900166 
1144.560 5014216 5140298 5271917 5401296 5520812 5625727 5715257 5791240 
1148.418 5855615 5907908 5944084 5958629 5947644 5913249 5864850 5819682 
1152.275 5796075 5808802 5863742 5956109 6071881 6193465 6305838 6399610 
1156.133 6472147 6525423 6562726 6586543 6597275 6595155 6581833 6560910 
1159.990 6536657 6511935 6484625 6447765 6392347 6311150 6203918 6079945 
1163.848 5957352 5856857 5794631 5777103 5798123 5842047 5889233 5924870 
1167.705 5941732 5942035 5933536 5925038 5920840 5919295 5913047 5892861 
1171.562 5850376 5780360 5681316 5555010 5405422 5238649 5064128 4895173 
1175.420 4747153 4636254 4574136 4563287 4595399 4652966 4713957 4756432 
1179.277 4767453 4743870 4693291 4628686 4565463 4514838 4482664 4469374 
1183.135 4472822 4489829 4517985 4555552 4600589 4648780 4694597 4730404 
1186.992 4748928 4745377 4718747 4671956 4611372 4545205 4481727 4427128 
1190.849 4386125 4360320 4349109 4350247 4361726 4380870 4406509 4438242 
1194.707 4475434 4517282 4562349 4607086 4648077 4680999 4702067 4707962 
1198.564 4696875 4667602 4620983 4559938 4490465 4420902 4362496 4326385 
1202.422 4320629 4347569 4402928 4475434 4550161 4614755 4661239 4689406 
1206.279 4705081 4717943 4735898 4761859 4791741 4816366 4825680 4811876 
1210.137 4773450 4715967 4649550 4585822 4533654 4497261 4475969 4465357 
1213.994 4459900 4455548 4450829 4446878 4446945 4454745 4473559 4504760 
1217.851 4547181 4597643 4650186 4698215 4735194 4756164 4759212 4745143 
1221.709 4718044 4682807 4643990 4604240 4564525 4523677 4481124 4437539 
1225.566 4396735 4364002 4345026 4344423 4363667 4400785 4450996 4508410 
1229.424 4568476 4628116 4686994 4745478 4803634 4859152 4906265 4936928 
1233.281 4943799 4922183 4873292 4805477 4734591 4678386 4653971 4671989 
1237.139 4733754 4829298 4940481 5046998 5129938 5178891 5193679 5183753 
1240.996 5164305 5150826 5154682 5179495 5222115 5274332 5328501 5380026 
1244.853 5429746 5482424 5543633 5616094 5696188 5773275 5833249 5863373 
1248.711 5856387 5815383 5753633 5691824 5649795 5641974 5671245 5728552 
1252.568 5794262 5845204 5863003 5837850 5772469 5679571 5579274 5490612 
1256.426 5428639 5400625 5405691 5438100 5489404 5551519 5617504 5681048 
1260.283 5736711 5779588 5806384 5816827 5814980 5807324 5801884 5805847 
1264.141 5821999 5849570 5883994 5920168 5953724 5982983 6009187 6035393 
1267.998 6064422 6098762 6139323 6187382 6243480 6308393 6381654 6460814 
1271.855 6539684 6611135 6667557 6704637 6723380 6730380 6735629 6749561 
1275.713 6779985 6828182 6890018 6957419 7022741 7080833 7131556 7178243 
1279.570 7225777 7276888 7330936 7382598 7424930 7451221 7457626 7444581 
1283.428 7416302 7379666 7341349 7307449 7281875 7266510 7262062 7268363 
1287.285 7285311 7313279 7353279 7407168 7477682 7566786 7675096 7799829 
1291.142 7935361 8072354 8200981 8313740 8407035 8483017 8548502 8612003 
1295.000 8680179 8755329 8834212 8910167 8975920 9027406 9066278 9099470 
1298.857 9136353 9184202 9245123 9314041 9380159 9429323 9449471 9433962 
1302.715 9383071 9303614 9207419 9107827 9016479 8943043 8894001 8872154 
1306.572 8877362 8906447 8951971 9003421 9048855 9076530 9077612 9049599 
1310.430 8996149 8926672 8853149 8787922 8738932 8707966 8690455 8677846 
1314.287 8661013 8633837 8594564 8545528 8490484 8432304 8370755 8303236 
1318.144 8225767 8136123 8036574 7933269 7836230 7754458 7694590 7658470 
1322.002 7644947 7651152 7675096 7717052 7777902 7857890 7953854 8057535 
1325.859 8157460 8241907 8302561 8337281 8352245 8359439 8372511 8404130 
1329.717 8461900 8547252 8657126 8785725 8926672 9073485 9220719 9363129 
1333.574 9495053 9612043 9710531 9789316 9850084 9897470 9937980 9977850 
1337.432 10023691 10080320 10152661 10245266 10362289 10505277 10672082 
1340.807 10855700 11046465 11232485 11404400 11553993 11676576 11771856 
1344.182 11843390 11898282 11945415 11993781 12049816 12117272 12197109 
1347.557 12287868 12387237 12492801 12602381 12713865 12824832 12932414 
1350.932 13032648 13121532 13195952 13254944 13300450 13337963 13375925 
1354.308 13423630 13490753 13584723 13709659 13867061 14056176 14274751 
1357.683 14519576 14787370 15075912 15385448 15722414 16102759 16553892 
1361.058 17110498 17807710 18662596 19656712 20731194 21802662 22792860 
1364.433 23647096 24344690 24886816 25289394 25577128 25785724 25964694 
1367.809 26171962 26473592 26924670 27558070 28383888 29395038 30582006 
1371.184 31945832 33506688 35297772 37345720 39640456 42098272 44551796 
1374.559 46795164 48641868 49986368 50804932 51111128 50918172 50222200 
1377.934 49014564 47313784 45191856 42777060 40214424 37642964 35161296 
1381.310 32820996 30646926 28645402 26814554 25143772 23609240 22172888 
1384.685 20785762 19399862 17981522 16527148 15070903 13675772 12406738 
1388.060 11302705 10366327 9576306 8906413 8336100 7852862 7447716 7109596 
1391.918 6823470 6570867 6333809 6101518 5872239 5652950 5453869 5280705 
1395.775 5131581 5000406 4882071 4777336 4691750 4632503 4602297 4596538 
1399.632 4604809 4617266 4629289 4642249 4660803 4688100 4723437 4761390 
1403.490 4794455 4817739 4832280 4845213 4864949 4894369 4928014 4955562 
1407.347 4966152 4956031 4930125 4901507 4885489 4893196 4927779 4982307 
1411.205 5045322 5106536 5162427 5216012 5272790 5335847 5403812 5471821 
1415.062 5536518 5600218 5673595 5773141 5916439 6111599 6348704 6596063 
1418.920 6815897 6985163 7111482 7221330 7343169 7492144 7671622 7877729 
1422.777 8106685 8358156 8635156 8940303 9269933 9612856 9955541 10289167 
1426.634 10616904 10954945 11332327 11782343 12331431 12988469 13741292 
1430.010 14563465 15428842 16323090 17242866 18187916 19153656 20127936 
1433.385 21097484 22060798 23033208 24056510 25192400 26498810 27978468 
1436.760 29553974 31097840 32507676 33754976 34874252 35923356 36960276 
1440.135 38025504 39139612 40304756 41513028 42753844 44018824 45303716 
1443.511 46602936 47905760 49198472 50466944 51706884 52929564 54161704 
1446.886 55435028 56770092 58164736 59592444 61021284 62438424 63856864 
1450.261 65310880 66835812 68449360 70134152 71839224 73501400 75059640 
1453.636 76484064 77775504 78952624 80033144 81013136 81853616 82487616 
1457.012 82876936 83061520 83126880 83141840 83116928 83032440 82865264 
1460.387 82609552 82273280 81868616 81396864 80839760 80153360 79275832 
1463.762 78145744 76734344 75067592 73205880 71199680 69059040 66750028 
1467.137 64238592 61519120 58630824 55631164 52583712 49524776 46427388 
1470.513 43219124 39807036 36156244 32382782 28783386 25701906 23312982 
1473.888 21556170 20229010 19117332 18088144 17089474 16134016 15257008 
1477.263 14484495 13812467 13214261 12655766 12112502 11575941 11053806 
1480.638 10560951 10109520 9700230 9323181 8963810 8612409 8268586 7939748 
1484.496 7635202 7360793 7115726 6892880 6682530 6477798 6278439 6092042 
1488.353 5928498 5795370 5692361 5611899 5544606 5483632 5426659 5372579 
1492.211 5318774 5260112 5190527 5105028 5002183 4885724 4764840 4650722 
1496.068 4552237 4468939 4392150 4309753 4216430 4115869 4017639 3930498 
1499.925 3857381 3794705 3734444 3668912 3593467 3507246 3411491 3306442 
1503.783 3187500 3044131 2859083 2613042 2301381 1962516 1691202 1580749 
1507.640 1630002 1751679 1862076 1923975 1932628 1901311 1848966 1794398 
1511.498 1750282 1721473 1704708 1691502 1672575 1639913 1588763 1517436 
1515.355 1428468 1329315 1235136 1163867 1128386 1130545 1162505 1210282 
1519.213 1258895 1295117 1309042 1298008 1270692 1244041 1230118 1226031 
1523.070 1216827 1185495 1121642 1024286 904340 783199 688275 638763 638133 
1527.410 672213 719007 757906 776992 773838 751699 715754 670321 618688 
1531.749 564175 513782 479349 473942 502138 552331 603292 633388 629472 
1536.089 585973 502138 381042 229348 63887 -89253 -190942 -205746 -126818 
1540.428 4771 126259 197689 213203 189435 149692 117940 112504 141505 200540 
1545.250 271751 332362 362438 352258 300132 212407 100772 -16102 -116483 
1549.590 -182463 -206839 -197268 -169116 -137881 -111912 -92666 -77195 
1553.447 -62022 -45821 -30647 -20774 -20410 -31078 -51155 -75539 -93792 
1557.787 -87696 -28461 100175 267938 416827 516535 568189 581692 564473 
1562.126 520085 451686 364925 269993 180452 111079 72238 64914 81616 111477 
1566.948 145814 180452 216651 259948 316943 390395 475468 561122 636872 
1571.288 695244 732150 745359 732216 690034 616963 515871 396795 279078 
1575.627 191192 156520 177004 231005 290417 336507 364561 379484 390560 
1579.967 407010 435400 477956 532226 593040 653828 710311 760428 804344 
1584.307 843417 878509 910449 938574 961951 978622 987024 985695 974670 
1588.646 955243 931899 909819 894545 889366 895176 908590 924329 936814 
1592.986 941994 939603 932696 926952 927616 937445 955775 978721 1001437 
1597.325 1019504 1030696 1035412 1035811 1034981 1036442 1043350 1058131 
1601.183 1082312 1116593 1159780 1209218 1260855 1309906 1351916 1384257 
1605.040 1405265 1414573 1411481 1395426 1365776 1323599 1272586 1218821 
1608.898 1169548 1130612 1103903 1086265 1070520 1047834 1010570 954247 
1612.755 878442 786053 681737 570843 460674 360316 281797 236807 230408 
1617.095 255505 294926 331864 354745 358890 344631 314456 271883 221458 
1621.434 168917 120889 84334 64052 59943 66140 73464 73795 61037 32439 
1626.256 -12160 -68913 -130760 -187332 -227836 -245851 -240155 -215682 
1630.113 -180244 -142088 -108500 -84417 -73882 -79116 -101676 -141889 
1633.971 -197202 -260223 -316016 -345649 -338464 -301779 -255984 -220649 
1637.828 -205680 -211111 -231214 -257275 -280620 -293203 -291879 -277673 
1641.686 -256448 -235187 -220583 -217073 -226345 -247407 -278435 -316050 
1645.543 -355217 -387958 -404676 -396797 -363758 -313103 -255156 -198394 
1649.401 -147686 -105949 -74280 -54005 -47842 -60200 -96541 -156331 -223199 
1653.740 -273468 -297474 -300421 -291183 -275554 -256911 -237870 -220351 
1657.598 -206740 -198824 -197632 -202832 -213297 -227107 -242009 -254957 
1661.455 -262507 -261315 -249063 -226809 -199586 -174548 -158616 -157060 
1665.312 -172560 -206839 -260752 -333697 -423610 -525221 -627734 -714808 
1669.170 -768096 -774744 -735019 -661050 -571848 -483884 -407092 -345847 
1673.027 -299461 -264428 -236181 -211476 -191240 -180542 -185974 -211542 
1676.885 -256646 -316844 -385641 -455983 -521183 -575322 -616054 -646460 
1680.742 -674217 -708655 -758405 -827760 -914629 -1003629 -1065144 -1069739 
1684.599 -1016290 -935029 -858879 -804477 -773355 -761348 -761944 -768195 
1688.457 -772065 -765351 -741635 -697805 -636535 -564965 -493714 -433475 
1692.314 -392858 -377961 -392858 -439168 -516186 -619330 -735780 -845916 
1696.172 -931987 -987728 -1018571 -1033313 -1037148 -1028223 -1000422 
1699.547 -948882 -878653 -810133 -765648 -753708 -769882 -805503 -852662 
1703.404 -905338 -957544 -1003100 -1034008 -1043660 -1030438 -999133 -958900 
1707.262 -920349 -892045 -879182 -883481 -903453 -933905 -967561 -995662 
1711.119 -1012091 -1012422 -996191 -966801 -930532 -895980 -873792 -874487 
1714.977 -905437 -969016 -1059559 -1163267 -1256082 -1312607 -1316901 
1718.352 -1272535 -1199715 -1121595 -1054799 -1006637 -977942 -965975 
1721.727 -964586 -965413 -958933 -937244 -895517 -835432 -764061 -693140 
1725.585 -634219 -598220 -592529 -619562 -677129 -757942 -852000 -946138 
1729.442 -1028421 -1090958 -1131344 -1152726 -1160426 -1159038 -1149124 
1732.817 -1125858 -1081836 -1015100 -937211 -869295 -827760 -817574 -834936 
1736.675 -873693 -926697 -986174 -1042205 -1083125 -1098824 -1085967 
1740.050 -1050733 -1005811 -965181 -938534 -929607 -936946 -955858 -980058 
1743.907 -1004918 -1029148 -1055063 -1087190 -1130221 -1186399 -1253802 
1747.283 -1325986 -1392179 -1439935 -1458923 -1442411 -1389702 -1304778 
1750.658 -1196807 -1077473 -960123 -856696 -775472 -721622 -698169 -705347 
1754.515 -742958 -807057 -890590 -978769 -1053113 -1096180 -1098394 -1061310 
1758.373 -994538 -911124 -822039 -737732 -667336 -618337 -595010 -595904 
1762.230 -612713 -633292 -647287 -649471 -640207 -623929 -608146 -600503 
1766.088 -607419 -632664 -674515 -726485 -778250 -820881 -849950 -865525 
1769.945 -870915 -869626 -862582 -848495 -824089 -788635 -745273 -700782 
1773.802 -660984 -629157 -605036 -586606 -571120 -557552 -546169 -539583 
1777.660 -541470 -554177 -578069 -609635 -642126 -667204 -679014 -678088 
1781.517 -671703 -670347 -683844 -718314 -773388 -841550 -909206 -962040 
1785.375 -988224 -983595 -950800 -897567 -832357 -762407 -693140 -628098 
1789.232 -570061 -521448 -484480 -461047 -451580 -453533 -461775 -470712 
1793.089 -477497 -482196 -488055 -497653 -513075 -534156 -560365 -590577 
1796.947 -625021 -665649 -715403 -776960 -849685 -928350 -1003430 -1062203 
1800.804 -1094726 -1097733 -1077176 -1044651 -1014571 -998934 -1003794 
1804.180 -1029049 -1068450 -1111780 -1146744 -1162012 -1150347 -1110491 
1807.555 -1048254 -975893 -910396 -868005 -859805 -888209 -945113 -1012323 
1811.412 -1068516 -1096907 -1090859 -1055295 -1002736 -949709 -909570 
1814.787 -890458 -893698 -914067 -942203 -967561 -982504 -983860 -972421 
1818.645 -952750 -930235 -910595 -898295 -896740 -907817 -930631 -961313 
1822.502 -992885 -1014670 -1015761 -988290 -932450 -859441 -788801 -742693 
1826.360 -736673 -776034 -855869 -963297 -1078630 -1175296 -1228065 -1219474 
1830.217 -1151834 -1046337 -934368 -843568 -789363 -776662 -800707 -848859 
1834.075 -903221 -944881 -959197 -939063 -888209 -820121 -753212 -704652 
1837.932 -685168 -695919 -729230 -772462 -813771 -844626 -861193 -863376 
1841.789 -853092 -831795 -800277 -758206 -705810 -644806 -579260 -514101 
1845.647 -452441 -396301 -346642 -305454 -276581 -265190 -276216 -311547 
1849.504 -369022 -441650 -520985 -600437 -676699 -750599 -825643 -905833 
1853.362 -991959 -1081373 -1167068 -1241049 -1295363 -1325358 -1329289 
1856.737 -1309370 -1270222 -1216368 -1151701 -1079390 -1001976 -924217 
1860.112 -853389 -798260 -768294 -769419 -802559 -862748 -940650 -1023562 
1863.970 -1097205 -1150148 -1173379 -1164358 -1125991 -1069177 -1008653 
1867.345 -961776 -942666 -954403 -983794 -1004720 -990141 -922266 -799153 
1871.202 -632697 -445689 -263633 -110322 -3677 49803 53746 20046 -37009 
1875.542 -104094 -171534 -235750 -295157 -349622 -398419 -439896 -472267 
1879.399 -495733 -512248 -525982 -541238 -561259 -585448 -610496 -629818 
1883.257 -637064 -627039 -599014 -557188 -510792 -470447 -446152 -444861 
1887.114 -468130 -510792 -560994 -602555 -618040 -594613 -531211 -438076 
1890.972 -334591 -243202 -185212 -176104 -224789 -332240 -490173 -679709 
1894.829 -873131 -1041809 -1161086 -1219474 -1219011 -1173313 -1101237 
1898.204 -1021645 -949279 -891285 -847668 -813506 -783939 -757743 -738658 
1902.062 -734291 -751558 -793001 -853356 -920613 -981050 -1024917 -1048419 
1905.919 -1056418 -1058897 -1066268 -1083158 -1106293 -1124173 -1122785 
1909.294 -1090330 -1024488 -933277 -834804 -749838 -696812 -689766 -736144 
1913.152 -837020 -987033 -1175197 -1382534 -1585052 -1756853 -1869633 
1916.527 -1899786 -1833803 -1676457 -1453342 -1205861 -979827 -806065 
1919.902 -701675 -670446 -710243 -814531 -972124 -1164094 -1361032 -1529487 
1923.760 -1640049 -1673255 -1625492 -1505186 -1330973 -1125197 -911355 
1927.135 -710607 -538822 -409939 -335915 -325784 -384813 -508773 -681859 
1930.992 -874586 -1052783 -1182665 -1240917 -1221556 -1139044 -1023165 
1934.368 -907222 -821212 -781921 -791248 -841087 -916910 -1003463 -1085339 
1938.225 -1150413 -1186332 -1182169 -1128238 -1019397 -859077 -662936 
1941.600 -461080 -288700 -178058 -146427 -193393 -303170 -452805 -620984 
1945.458 -788900 -944187 -1079456 -1191719 -1281851 -1353898 -1414571 
1948.833 -1470943 -1526549 -1579077 -1620243 -1633942 -1602450 -1510469 
1952.208 -1350660 -1127280 -854315 -554078 -251845 29490 267573 445815 
1956.066 551368 580100 536804 435666 297314 143726 -8813 -153217 -292673 
1960.405 -437612 -600503 -784269 -982207 -1175395 -1340421 -1454333 -1505285 
1964.263 -1493431 -1432702 -1341874 -1240818 -1143638 -1057873 -984257 
1967.638 -921440 -866484 -817243 -772429 -733299 -701774 -681396 -676169 
1971.495 -684208 -693504 -677890 -599941 -418281 -100980 358393 929575 
1975.353 1541743 2102665 2524516 2748632 2765805 2607575 2335192 2009117 
1979.210 1681057 1377942 1104103 850920 610260 376201 152774 -51255 -227074 
1983.550 -369188 -474220 -541139 -566520 -547724 -487260 -400339 -315420 
1987.407 -274925 -317606 -462702 -699591 -985711 -1250961 -1415199 -1417676 
1991.265 -1235862 -901138 -487988 -92036 205148 360880 376433 290185 159138 
1995.604 41684 -22795 -17593 49836 156520 271552 366816 428700 453510 449530 
2000.426 428833 402400 374907 344332 302420 238796 143361 13220 -147885 
2004.766 -325320 -496825 -638652 -733001 -772098 -767633 -743487 -730752 
2008.623 -758372 -847470 -1005480 -1228990 -1505384 -1819384 -2152577 
2011.998 -2484032 -2784979 -3016591 -3133387 -3095095 -2877086 -2488051 
2015.373 -1973050 -1419393 -931921 -617709 -546003 -722813 -1081671 -1507464 
2019.231 -1877551 -2083466 -2067901 -1829711 -1423191 -932483 -451382 -56854 
2023.088 208860 335048 337004 243537 93017 -77659 -238764 -369916 -469619 
2027.428 -551596 -646361 -788073 -1003199 -1292257 -1627340 -1943297 
2030.803 -2158116 -2194612 -1994027 -1539029 -861987 -38500 835681 1659204 
2034.661 2337757 2800419 2992582 2892104 2517217 1935058 1252216 593338 
2038.518 84102 -188657 -193857 33267 400908 789506 1087095 1231447 1215166 
2042.858 1079854 886411 693020 530601 399979 283090 160796 27634 -104558 
2047.197 -214854 -287342 -324393 -349158 -397492 -499837 -665285 -878356 
2051.054 -1102526 -1296288 -1424974 -1475203 -1453441 -1382799 -1289284 
2054.430 -1193371 -1102856 -1013909 -915025 -796077 -653441 -491464 -320288 
2058.287 -152853 -298 129772 235182 317440 381573 432846 477657 520847 
2062.627 567293 619750 681272 753558 837009 930140 1025681 1109218 1159415 
2066.966 1149050 1055540 868449 598780 279078 -36744 -288336 -429403 -438704 
2071.306 -332505 -159477 13154 126093 142566 61467 -86139 -248699 -374154 
2075.646 -429635 -407655 -327340 -221378 -128077 -76102 -78951 -135894 
2079.503 -234161 -355978 -480906 -592496 -675971 -721424 -724732 -688377 
2083.360 -619826 -530450 -431820 -331776 -233929 -138146 -44066 44269 117906 
2087.700 163945 170077 130070 49405 -54767 -156828 -231412 -257474 -226345 
2092.040 -140035 -9111 153139 332395 514246 683695 823000 912740 936482 
2096.379 885415 765142 596125 412250 247681 128479 63721 43043 43010 35620 
2101.201 4241 -53574 -122313 -178125 -196341 -164810 -87895 12823 107102 
2105.541 163978 161459 91525 -38400 -209820 -400074 -584025 -741039 -857258 
2109.880 -923986 -939922 -909206 -840856 -746232 -637891 -526875 -418579 
2113.738 -313765 -208992 -98562 20510 146278 270093 377063 449762 472715 
2118.077 434438 332063 171270 -33894 -264693 -497818 -709614 -880571 -994240 
2122.417 -1040982 -1018802 -933905 -799252 -634682 -463529 -307143 -182463 
2126.274 -99854 -61094 -60995 -91572 -144506 -213860 -296647 -392461 -499010 
2130.614 -610959 -717124 -801865 -851802 -857027 -819459 -750367 -670810 
2134.471 -602985 -563840 -559538 -583529 -621017 -654566 -672100 -671935 
2138.329 -660058 -647453 -643913 -654632 -675706 -700683 -722615 -740444 
2142.186 -759496 -792571 -851339 -945344 -1074168 -1228990 -1392707 -1548439 
2146.043 -1679757 -1775729 -1832318 -1849376 -1830107 -1778137 -1697184 
2149.419 -1588651 -1451955 -1283767 -1078993 -833151 -546202 -225253 106936 
2153.276 414406 654061 779946 761391 597187 319065 -13452 -328466 -556857 
2157.616 -662274 -641696 -528365 -367930 -201507 -44066 108693 271220 448369 
2161.955 624926 763880 826320 781074 627713 398254 154001 -35319 -112475 
2166.295 -50261 141008 420210 728333 1009706 1225732 1356536 1401110 1368535 
2170.635 1269628 1111145 895176 624097 306564 -35518 -369850 -661646 -877992 
2174.974 -1002637 -1037412 -999794 -914100 -805800 -695621 -594713 -510328 
2178.832 -446781 -406827 -391070 -395010 -402226 -385939 -315023 -163717 
2182.689 77142 390030 733643 1047635 1275111 1371094 1322801 1147056 889565 
2187.029 604653 341348 131827 -12491 -101808 -155602 -194718 -234095 -280885 
2191.368 -333233 -388124 -440393 -487260 -525320 -551265 -557883 -537929 
2195.226 -485506 -401134 -293700 -182364 -91042 -43966 -55065 -124632 
2199.083 -236313 -363858 -474319 -541768 -555302 -522077 -465184 -418281 
2202.940 -414143 -470976 -589088 -745505 -904346 -1020785 -1058600 -997017 
2206.798 -835995 -594878 -307673 -15307 243968 441204 558999 593770 553293 
2211.137 456495 326028 191590 79230 7620 -15572 3976 47682 91327 113598 
2215.959 102230 59181 463 -50957 -72060 -49598 16169 111013 213468 299104 
2220.781 351097 363301 340652 295059 241979 194772 160862 140875 129705 
2225.121 118205 95535 54475 -7885 -85874 -167129 -233333 -266282 -254494 
2229.460 -197665 -109858 -16301 51526 66935 18389 -86537 -221543 -349158 
2233.800 -430595 -440922 -373227 -242572 -78222 83008 209689 283090 300331 
2238.139 271154 213932 149195 93680 56994 42546 47450 64947 84334 95105 
2242.961 85030 45130 -28925 -133874 -259097 -387031 -495899 -566785 -586837 
2247.301 -553449 -475378 -369121 -256911 -158451 -89651 -58742 -66793 
2251.158 -107871 -173289 -252374 -334822 -412389 -478787 -529986 -563740 
2255.016 -578631 -572576 -542694 -484513 -394778 -272508 -123108 41253 
2258.873 202363 338264 430591 468735 453676 397890 321718 246951 187645 
2263.213 148963 125563 107367 85129 57425 30981 19947 36250 85427 160133 
2268.034 243039 308819 336042 313760 246520 152509 57855 -10669 -34623 -7819 
2272.856 63323 163514 272745 371956 448070 494011 509436 498787 470161 
2277.196 432282 392484 356171 324868 296883 269231 239956 209789 184562 
2281.535 171933 181115 216850 278945 359586 447042 527681 591115 631861 
2285.875 651306 655222 649979 640953 630401 617759 602463 585674 571640 
2290.215 566663 576915 605051 648453 698198 742173 767100 764577 732482 
2294.554 677124 610028 547719 504526 490063 506848 549676 607904 667268 
2298.894 714460 739817 739086 712966 667500 610725 550672 494044 445350 
2303.233 407275 381275 369038 371591 390660 426777 478553 542710 613412 
2307.573 683861 746455 796178 830469 850256 859983 866988 877944 898696 
2311.913 930239 969489 1008378 1036708 1045509 1031294 997916 957236 926686 
2316.252 924794 964774 1052352 1182439 1341878 1511584 1674338 1816091 
2320.110 1930498 2016839 2078161 2116949 2134729 2130767 2105295 2060549 
2323.967 2002825 1940250 1882209 1836255 1806874 1795429 1801185 1822246 
2327.824 1856919 1903707 1961285 2027225 2096805 2163998 2220611 2260411 
2331.682 2278664 2275000 2253084 2220012 2185411 2158937 2149180 2161401 
2335.539 2196367 2249087 2310908 2372304 2425512 2468929 2507219 2550212 
2339.397 2606875 2681649 2769273 2855715 2918856 2938404 2900776 2804955 
2343.254 2661912 2491990 2317670 2157638 2021799 1912194 1825075 1754707 
2347.112 1696924 1650290 1615236 1592821 1583542 1587466 1603828 1631200 
2350.969 1667985 1713157 1765918 1825407 1891560 1963914 2042805 2128902 
2354.826 2222610 2323733 2429410 2534947 2633776 2718223 2781445 2818895 
2358.684 2828600 2810724 2768940 2709121 2641010 2575943 2528182 2508486 
2362.541 2522316 2564777 2621209 2668613 2683282 2648877 2562744 2436441 
2366.399 2291021 2149913 2029289 1932329 1849897 1767016 1671178 1558835 
2370.256 1439871 1334400 1267069 1255904 1308211 1416169 1559433 1707701 
2374.114 1830831 1903142 1907634 1838917 1701780 1510254 1282788 1041026 
2377.971 806203 595163 421404 292672 210916 174154 176209 208264 259284 
2382.311 318534 375571 422498 455898 476198 487542 495603 504891 516701 
2386.650 527416 529738 515838 480543 424621 355474 286339 232464 204949 
2390.990 209092 241713 293368 349870 398686 430624 441901 433642 410260 
2395.329 376930 338397 297977 258389 222618 193910 176540 174784 191789 
2399.669 228718 283786 351760 424853 493546 548416 582489 592973 582422 
2404.009 557572 529241 508275 502967 517729 551435 597851 647358 689138 
2408.348 713033 710975 678784 616332 528577 424853 318733 224706 155061 
2412.688 117774 113233 135572 173458 216153 255074 287002 313163 337435 
2417.027 362173 386846 407076 417324 413477 396663 372486 350533 340221 
2421.367 347184 371392 407640 448667 487277 519089 543240 560160 569914 
2425.707 570976 560459 535942 497825 450691 401869 360415 333224 322513 
2430.046 325465 335843 346421 351893 350368 343404 334849 328548 327554 
2434.386 333224 345394 362306 381208 398520 409431 409796 396563 369668 
2438.725 331798 289025 248012 214496 190993 177601 171800 171436 175281 
2443.065 184098 199114 220198 245029 268634 286239 295424 297513 298043 
2447.405 303812 320491 348345 383065 416329 441105 453410 455434 453211 
2451.744 454737 464754 483396 506417 528113 543871 552762 556511 557141 
2456.084 554188 543141 517265 471654 407541 335147 270723 232497 233425 
2460.423 275298 346886 427208 494309 530800 530634 499186 449895 397027 
2464.763 350600 313859 284449 257859 232000 209557 197888 205612 237934 
2469.103 294097 366650 443659 511128 558468 580100 576052 551402 513616 
2473.442 470957 429695 394142 365323 341945 320889 298839 273872 246985 
2477.782 222121 205910 205446 225701 267208 324967 389433 448203 489334 
2482.121 504891 491589 451752 391588 319960 245791 177270 120525 79230 54210 
2486.943 43705 43838 49902 57889 65709 74955 89239 113863 152509 205479 
2491.765 268137 332030 387111 424754 440176 434272 412051 381507 349638 
2496.104 322082 300497 284515 272182 261804 252554 244697 238564 234718 
2500.444 232331 231105 230773 232895 240221 256334 283720 322679 369833 
2504.784 419513 464422 498854 520317 531828 540022 553293 578673 618589 
2509.123 668695 718841 756412 770419 755383 714227 657313 600206 557440 
2513.463 538828 546094 572701 605582 630866 638066 622703 587631 541383 
2517.802 495338 458751 438153 435168 448170 472781 504858 540719 578043 
2522.142 615171 650908 683629 711971 735435 754587 772013 792095 819581 
2526.482 858954 912541 979386 1055341 1132638 1202042 1254243 1281027 
2530.339 1277803 1243709 1182505 1100482 1007415 913571 828577 760926 715655 
2534.679 694082 694149 710709 736929 765972 793522 817323 838105 857891 
2539.018 878011 897965 914367 922004 915795 894014 858821 817157 778452 
2543.358 752130 743600 753989 779514 814668 853808 893948 934290 975301 
2547.698 1015950 1052385 1077628 1084670 1068627 1030763 978157 923963 
2551.555 881729 862041 869279 900754 949200 1004725 1059094 1106694 1143967 
2555.895 1168584 1177787 1168618 1139947 1093971 1038568 985629 949100 
2559.752 939836 960258 1004260 1058197 1106229 1135163 1141242 1130047 
2563.609 1115098 1111212 1130180 1176026 1244407 1324529 1404368 1474380 
2567.467 1528941 1567314 1590027 1597709 1588963 1561595 1514477 1450077 
2571.324 1375515 1301564 1239223 1197589 1180113 1184598 1204500 1232677 
2575.182 1263547 1295549 1330744 1373022 1425277 1487512 1556008 1624614 
2579.039 1686546 1736310 1770642 1788708 1791869 1781821 1761128 1733449 
2582.896 1703310 1677498 1663129 1666222 1689406 1730655 1782420 1833726 
2586.754 1873490 1894322 1894289 1877750 1853724 1832362 1821248 1823311 
2590.611 1836355 1854423 1870595 1879148 1877983 1867634 1851062 1831596 
2594.469 1812431 1795096 1780856 1770177 1763656 1761859 1764588 1770443 
2598.326 1777330 1782520 1784416 1782886 1779559 1777529 1780191 1789540 
2602.184 1805577 1825441 1845305 1860479 1867833 1865837 1856320 1842544 
2606.041 1829600 1822679 1825973 1841878 1870163 1907501 1948404 1985816 
2609.898 2013244 2026726 2026060 2015741 2003291 1997300 2004523 2028424 
2613.756 2067374 2115384 2164764 2208056 2240261 2259879 2267972 2267606 
2617.613 2261710 2252318 2240861 2228338 2216349 2207357 2204326 2209388 
2621.471 2223442 2245124 2270937 2296451 2317503 2331727 2338590 2339556 
2625.328 2337024 2333426 2330361 2328230 2326697 2324432 2320435 2313706 
2629.186 2303679 2290655 2275300 2259379 2245190 2235565 2232767 2239029 
2633.043 2254116 2276999 2304845 2333660 2359244 2378034 2387729 2387663 
2636.900 2378734 2363342 2345053 2328263 2317137 2314938 2323533 2342721 
2640.758 2370538 2403322 2436674 2466897 2490957 2507353 2516351 2518784 
2644.615 2516517 2511685 2506786 2503787 2505386 2513651 2529748 2554111 
2648.473 2585675 2622109 2660779 2698919 2734361 2765938 2792983 2815293 
2652.330 2832602 2844341 2850211 2850011 2843941 2833035 2818595 2802087 
2656.188 2784979 2768406 2753334 2740963 2733027 2731127 2736462 2749533 
2660.045 2769773 2795217 2823264 2851345 2877094 2899175 2916321 2927829 
2663.902 2932699 2930331 2920690 2905179 2887000 2870623 2860617 2860651 
2667.760 2871757 2891737 2915787 2938570 2954983 2962623 2961922 2955817 
2671.617 2947844 2941773 2939838 2942673 2950213 2961789 2976935 2994550 
2675.475 3013268 3030384 3042496 3046367 3040227 3025479 3006661 2990780 
2679.332 2984675 2992649 3014602 3045265 3076532 3099023 3106332 3096621 
2683.189 3072961 3041996 3011833 2988478 2974599 2969028 2967761 2966393 
2687.047 2961555 2952148 2938904 2924326 2910316 2898174 2887934 2879229 
2690.904 2871424 2864620 2859517 2856882 2857149 2859583 2862285 2862619 
2694.762 2857949 2846109 2826465 2799952 2768706 2735862 2705054 2679882 
2698.619 2663579 2658378 2665213 2683316 2709788 2740296 2769873 2793416 
2702.477 2807623 2811191 2805388 2793550 2780478 2771241 2769740 2778810 
2706.334 2800053 2833269 2877428 2930464 2989579 3050738 3109435 3160364 
2710.191 3199015 3222047 3228256 3219511 3199716 3175217 3153122 3139438 
2714.049 3138971 3153522 3182159 3221714 3267448 3314622 3359431 3399603 
2717.906 3435069 3467098 3497092 3526320 3554814 3580972 3602555 3617356 
2721.764 3624539 3624639 3620095 3613981 3609471 3608401 3610540 3614382 
2725.621 3617690 3618425 3615685 3610172 3603457 3597343 3592799 3589458 
2729.479 3585984 3580171 3569948 3553912 3531865 3504374 3472509 3437808 
2733.336 3401707 3365876 3332118 3302436 3278465 3261071 3249821 3242711 
2737.193 3236134 3226354 3209930 3184896 3151653 3112973 3072961 3036757 
2741.051 3009197 2993282 2989780 2997053 3011699 3028816 3043163 3051072 
2744.908 3050204 3040794 3024812 3005694 2987277 2972264 2962323 2957485 
2748.766 2956651 2957919 2959987 2961555 2962556 2963023 2963690 2965358 
2752.623 2968928 2975367 2985642 2999722 3016971 3035756 3053841 3068223 
2756.480 3077132 3079769 3077366 3072027 3067155 3065453 3068189 3075964 
2760.338 3087911 3102894 3120381 3139972 3162033 3186098 3211099 3234599 
2764.195 3253426 3265278 3268650 3264810 3256565 3248853 3246349 3252959 
2768.053 3270786 3300065 3339029 3384943 3434268 3483364 3528725 3567977 
2771.910 3599314 3622969 3640377 3654778 3669848 3688995 3714727 3748113 
2775.768 3788154 3833379 3881986 3932103 3982827 4033624 4084093 4133732 
2779.625 4182205 4229512 4276390 4324577 4376051 4431949 4492273 4555016 
2783.482 4616596 4672693 4719953 4757370 4786884 4812948 4841226 4877413 
2787.340 4924495 4983145 5050853 5123802 5197870 5269939 5339537 5407670 
2791.197 5477089 5550244 5628748 5711967 5797888 5882852 5963903 6039357 
2795.055 6110087 6178878 6250639 6329876 6419450 6519705 6627990 6739735 
2798.912 6849624 6953513 7049446 7137956 7220926 7301417 7382025 7464435 
2802.770 7550062 7640698 7738065 7845035 7964113 8096726 8242347 8397644 
2806.627 8557525 8716113 8868400 9011641 9145692 9273081 9398205 9525873 
2810.484 9660929 9807515 9968492 10145335 10337688 10543399 10758311 
2813.860 10977067 11194880 11408754 11618854 11829327 12047738 12282619 
2817.235 12541159 12827221 13139633 13472604 13816605 14162420 14502103 
2820.610 14832282 15154305 15474507 15802676 16148426 16521022 16926112 
2823.985 17365378 17836984 18336994 18861944 19410638 19986186 20595536 
2827.361 21249060 21956752 22727252 23565126 24471220 25443742 26481024 
2830.736 27583454 28755170 30003612 31338058 32767720 34300020 35940232 
2834.111 37692544 39561580 41553428 43676000 45936452 48339260 50883752 
2837.486 53562720 56362728 59268252 62263164 65334024 68471904 71670288 
2840.862 74923504 78225320 81566344 84934960 88319640 91708920 95093552 
2844.237 98466664 101820928 105148200 108436424 111667024 114816896 
2847.130 117854064 120738984 123427448 125867400 128006176 129794416 
2850.023 131187904 132155224 132679208 132756936 132398624 131626088 
2852.916 130470752 128969208 127165344 125107664 122844552 120427960 
2855.809 117907360 115328088 112733856 110161512 107642864 105204808 
2858.702 102866680 100642528 98542152 96571512 94736280 93041912 91494160 
2862.077 90099272 88860888 87779216 86850024 86064336 85409728 84871384 
2865.453 84434672 84084160 83803248 83573568 83372424 83173104 82947400 
2868.828 82664784 82299072 81829656 81242344 80532024 79700464 78755760 
2872.203 77711064 76584088 75396832 74173272 72940848 71727928 70560688 
2875.578 69464880 68460848 67564136 66785536 66130512 65601080 65197012 
2878.954 64917476 64761520 64729824 64822912 65041652 65385632 65852836 
2882.329 66438944 67138368 67944768 68850600 69849504 70933264 72092584 
2885.704 73316832 74593176 75908632 77252312 78616880 79999568 81402896 
2889.079 82831864 84289896 85777464 87288368 88811528 90332312 91836136 
2892.455 93312312 94755400 96165960 97548392 98909320 100255240 101591064 
2895.830 102920344 104245576 105568736 106891408 108214800 109539208 
2898.723 110864384 112189880 113515384 114842576 116173144 117510664 
2901.616 118859064 120221952 121603232 123006864 124437072 125898480 
2904.509 127394856 128928856 130500776 132108912 133750480 135422944 
2907.402 137126000 138861808 140635408 142452288 144317392 146233008 
2910.295 148197792 150206880 152252576 154324336 156409344 158493824 
2913.188 160561232 162594592 164577008 166491344 168320624 170046016 
2916.081 171644352 173088752 174346208 175379888 176155840 176643408 
2918.974 176819264 176668192 176180048 175348048 174167744 172638880 
2921.867 170768288 168574064 166087984 163349696 160406464 157305232 
2924.760 154086784 150787936 147440688 144072768 140711664 137381424 
2927.654 134101152 130883368 127733616 124651448 121634536 118681888 
2930.547 115795592 112981216 110244832 107591752 105024160 102541800 
2933.440 100142896 97825848 95590720 93439624 91375392 89401272 87520832 
2936.815 85737016 84053880 82475912 81007704 79653176 78414488 77291936 
2940.190 76285384 75394664 74621304 73968704 73440344 73037464 72756832 
2943.565 72590752 72527080 72552848 72657568 72834376 73080048 73391808 
2946.941 73763520 74182704 74630872 75083976 75519592 75918376 76267296 
2950.316 76558432 76784080 76933296 76990296 76933224 76740432 76396744 
2953.691 75896440 75246720 74464736 73573496 72594280 71544152 70434296 
2957.066 69270592 68057024 66797212 65495692 64157924 62787816 61386936 
2960.442 59954692 58489392 56989428 55455772 53893448 52311124 50720468 
2963.817 49133388 47561292 46011188 44485720 42982892 41498336 40027844 
2967.192 38570612 37130488 35716744 34341756 33016440 31748374 30537424 
2970.567 29377914 28259682 27172642 26110204 25070996 24058892 23080516 
2973.943 22142658 21249756 20403380 19602634 18845924 18131842 17459948 
2977.318 16829592 16238810 15683766 15158765 14657291 14174265 13706889 
2980.693 13254330 12817905 12398999 11998516 11616335 11251968 10905371 
2984.068 10577281 10269456 9982699 9716697 9468231 9232634 9004538 8780010 
2987.926 8557863 8339916 8129506 7929928 7743327 7569651 7408314 7258828 
2991.783 7122193 7000786 6896852 6810881 6739667 6676271 6612144 6539247 
2995.641 6453146 6354755 6249631 6146346 6052226 5971797 5905053 5847655 
2999.498 5792717 5734663 5669164 5595250 5514638 5430216 5345642 5263063 
3003.355 5184692 5111532 5044317 4983379 4928919 4881099 4839685 4804338 
3007.213 4774555 4749531 4728361 4709704 4691918 4672994 4650823 4623528 
3011.070 4590309 4550697 4505464 4455783 4404099 4353091 4306072 4266218 
3014.928 4235368 4213486 4197728 4183275 4163470 4132427 4087337 4029411 
3018.785 3963667 3897799 3839697 3794103 3761081 3736516 3713724 3685720 
3022.643 3648663 3603022 3553278 3505910 3467198 3440513 3425484 3417803 
3026.500 3411224 3399402 3377730 3344639 3301401 3251691 3200284 3152120 
3030.357 3111037 3079401 3057611 3044598 3038225 3036290 3036590 3038058 
3034.215 3039260 3038659 3033954 3021842 2998754 2961889 2910183 2845275 
3038.072 2771741 2696785 2627576 2571710 2533681 2515418 2515584 2530581 
3041.930 2554978 2582576 2607942 2626642 2635943 2635376 2626409 2612142 
3045.787 2595709 2579276 2563710 2547712 2529248 2506153 2477893 2446404 
3049.645 2414283 2385497 2362742 2347018 2337057 2330561 2325598 2320834 
3053.502 2316271 2312240 2308609 2303912 2295485 2280329 2257380 2228338 
3057.359 2197799 2171624 2155440 2151778 2159037 2172224 2184312 2189507 
3061.217 2184711 2170592 2151478 2133331 2121244 2117914 2123342 2134563 
3065.074 2146949 2155341 2155540 2144419 2120844 2085585 2041240 1991841 
3068.932 1942347 1897650 1861577 1836587 1823344 1820949 1827537 1840813 
3072.789 1858349 1877717 1895787 1909598 1915522 1911595 1896719 1872426 
3076.646 1842311 1810634 1781988 1759664 1744893 1737341 1735112 1736177 
3080.504 1737507 1736443 1729690 1714155 1687377 1648727 1600170 1546664 
3084.361 1495026 1451507 1420158 1401143 1390772 1383360 1372889 1356835 
3088.219 1336062 1314592 1297576 1289135 1290664 1300036 1313662 1327919 
3092.076 1340516 1351118 1360691 1369466 1376147 1377775 1370629 1352448 
3095.934 1324529 1292027 1262284 1243376 1240718 1255871 1285314 1322236 
3099.791 1358397 1385952 1399515 1396789 1377377 1343042 1296480 1241050 
3103.648 1180645 1119848 1064242 1018574 987522 974471 980714 1005555 
3107.506 1046705 1100449 1161441 1224004 1281592 1327820 1358098 1369266 
3111.363 1361688 1338023 1303858 1265807 1230185 1202042 1184632 1178618 
3115.221 1183236 1196925 1217525 1242845 1270725 1298474 1322569 1339685 
3119.078 1346332 1339685 1319079 1286244 1245669 1203570 1167588 1143933 
3122.936 1136392 1145096 1166392 1194067 1220648 1240220 1249325 1247929 
3126.793 1239555 1229786 1224204 1227161 1240353 1262583 1290066 1317916 
3130.650 1341446 1356669 1362585 1360259 1353611 1347429 1346432 1353312 
3134.508 1367438 1385354 1400445 1406961 1399581 1377011 1341081 1297477 
3138.365 1252216 1211079 1177654 1153069 1137322 1129914 1131741 1144000 
3142.223 1168020 1203271 1246068 1290066 1327620 1352049 1359428 1350819 
3146.080 1330445 1304423 1277571 1252382 1228390 1203171 1174266 1141840 
3149.938 1108421 1078725 1057334 1048266 1051887 1066966 1090517 1119550 
3153.795 1152039 1186824 1222808 1258164 1290099 1314924 1329049 1330445 
3157.652 1319112 1297178 1268532 1236897 1206361 1179615 1158883 1146060 
3161.510 1142837 1150279 1168418 1195695 1228955 1264178 1297643 1325892 
3165.367 1347496 1361322 1367538 1365411 1354642 1334766 1306981 1274081 
3169.225 1240818 1212906 1195928 1193170 1205198 1229354 1260689 1293489 
3173.082 1322269 1342111 1350121 1344970 1326623 1297111 1261154 1223905 
3176.939 1192838 1173634 1169780 1181110 1203371 1229155 1250355 1260689 
3180.797 1256469 1238791 1211245 1180412 1153003 1134897 1129848 1139382 
3184.654 1160943 1189117 1215465 1230052 1223240 1189217 1127456 1044679 
3188.512 953483 871205 814601 794950 816162 872831 952122 1036608 1110481 
3192.851 1162604 1188585 1191110 1178120 1159714 1144764 1139349 1145030 
3196.709 1159946 1179349 1198088 1212076 1219485 1220748 1218256 1214535 
3200.566 1211544 1209384 1206593 1200812 1190047 1174066 1154730 1136492 
3204.424 1123935 1120845 1128153 1143967 1163435 1180977 1191808 1193104 
3208.281 1184632 1167687 1144697 1117556 1086464 1051455 1012031 969091 
3212.138 924960 883223 848396 824693 813971 816427 829772 850521 874823 
3216.478 899326 921872 941097 957037 969821 979452 986094 988385 985297 
3220.818 975633 958597 935021 907362 880434 859651 850388 856829 879737 
3225.157 916227 960191 1003064 1036276 1053315 1051322 1031659 999975 963811 
3229.497 931700 910317 902746 908490 923200 940300 953151 956771 949731 
3233.836 934323 915397 899758 893250 898430 914932 938574 963678 983636 
3238.176 994031 992503 979419 956704 927550 894246 859319 823830 789306 
3242.516 756910 728831 706992 693518 689901 696372 711904 734373 761623 
3246.855 790336 818651 845043 868316 888569 906166 921706 935220 946676 
3251.195 955044 959228 958332 952454 942492 930571 919448 910682 905203 
3255.534 901584 897434 889665 876052 856165 831864 806667 785390 771913 
3259.874 768395 775100 789373 807099 823398 833856 835648 828146 813207 
3264.214 793954 775232 760594 753823 756346 768262 788244 814236 843682 
3268.553 874325 903344 928413 947108 957369 958498 951624 940168 929841 
3272.893 926786 936050 959394 995193 1037605 1078326 1109683 1125994 1124865 
3277.232 1107690 1078260 1041225 1000308 958464 917323 878376 844446 818983 
3281.572 805838 807730 825125 854571 889665 922602 945281 952122 941894 
3285.912 916991 883290 847434 815996 793157 779879 774502 773705 774303 
3290.251 774469 774436 776494 784460 801223 828378 864498 906266 948635 
3294.591 987157 1018507 1041956 1058563 1070055 1078492 1083607 1083973 
3298.448 1077031 1060755 1034051 998913 959228 920743 888436 866191 855169 
3302.788 854472 861012 871304 882626 892819 901186 907760 913438 918252 
3307.127 922934 927384 931733 935917 940068 944352 948602 952753 956837 
3311.467 960025 962383 963678 964176 964342 964641 965936 968759 972644 
3315.807 977227 981179 983304 982109 977692 970419 961553 953052 946477 
3320.146 942791 942293 943953 947041 949897 951093 949997 946045 939570 
3324.486 931966 925026 921805 924960 937013 958498 987489 1019338 1047868 
3328.825 1066235 1069258 1054909 1024917 984334 940068 899758 869179 851583 
3333.165 847467 855401 872333 894645 919182 942193 960224 970419 970320 
3337.505 958863 936747 906664 872831 840362 814601 799331 796477 806203 
3341.844 826785 854771 886909 920543 953616 985463 1015352 1042719 1066501 
3346.184 1084836 1095200 1096164 1087560 1071118 1050259 1029567 1012363 
3350.041 1000407 992370 985131 975068 959560 939371 918153 902016 896537 
3354.381 905602 929210 963479 1001736 1036741 1063013 1077031 1077894 
3358.238 1066767 1045078 1014655 978024 938607 901153 871039 853277 850123 
3362.578 860215 878509 897600 910151 911147 899858 879472 855933 834951 
3366.917 821241 815896 817755 824262 833391 844014 856530 871404 888967 
3371.257 908656 928811 947739 963977 976762 986326 993201 997817 999909 
3375.597 999245 995260 988319 978854 968327 957501 947041 936482 925358 
3379.936 912674 898065 881663 864399 847467 832494 821373 816759 821473 
3384.276 838105 868250 911246 963678 1019935 1073277 1117224 1147555 1162538 
3388.615 1163568 1152837 1133369 1107092 1074938 1038236 998547 959627 
3392.473 925956 901651 889000 886842 891989 899559 905602 908922 911047 
3396.813 916094 927749 947672 974570 1003529 1028504 1044845 1050093 1045277 
3401.152 1034018 1020998 1009839 1002101 997883 995758 995094 996223 1000208 
3405.492 1008278 1021131 1036940 1052916 1064575 1068162 1061519 1044945 
3409.349 1020832 993101 965936 943023 926753 917787 915762 919813 927649 
3413.689 937710 947739 955874 960058 958797 950628 935054 912209 883091 
3418.028 850654 817987 789406 768992 760063 764246 780709 807033 839068 
3422.368 872964 905004 932298 953351 966667 971615 967796 955476 935851 
3426.708 910948 884153 859319 840064 829440 828610 837441 854140 876284 
3431.047 900787 924926 946477 964143 977526 987356 995027 1002566 1011035 
3435.387 1021231 1032025 1040926 1045177 1041823 1029899 1009706 984400 
3439.244 957734 934224 917123 908291 907195 912342 920311 928247 933062 
3443.584 933028 927151 916127 902281 889266 881597 883655 897699 922735 
3447.923 954413 986393 1011666 1025748 1027441 1019803 1008179 999677 999809 
3452.263 1010570 1029966 1051488 1067464 1070321 1055474 1023091 977991 
3456.120 927882 883091 852613 842587 854737 886012 929741 976530 1017046 
3460.460 1043948 1053979 1048532 1032822 1015186 1003097 1001935 1012961 
3464.317 1033519 1058098 1080618 1096164 1102541 1100482 1093805 1087461 
3468.175 1085833 1092078 1106727 1128320 1153103 1176259 1193336 1200447 
3472.032 1196061 1180545 1156923 1130213 1105365 1087627 1079754 1082279 
3475.890 1093141 1109318 1127024 1143070 1155262 1161774 1161309 1152770 
3479.747 1135329 1109717 1078592 1047104 1021629 1009108 1014256 1037538 
3483.604 1075536 1121775 1168651 1209019 1237894 1253312 1255538 1246467 
3487.462 1228590 1205132 1178585 1152538 1130246 1114733 1107989 1109551 
3491.319 1116560 1123536 1124001 1113105 1088922 1053481 1012895 975533 
3495.177 948735 937511 943023 962350 990610 1022460 1053315 1080651 1102508 
3499.516 1118121 1126326 1125762 1115862 1097426 1072912 1046871 1024452 
3503.374 1010038 1005887 1011832 1025681 1044214 1064143 1082644 1096828 
3507.231 1104601 1104003 1093805 1074971 1050193 1024319 1002898 990278 
3511.089 988950 998714 1017378 1041690 1068560 1095931 1122240 1146591 
3514.946 1167488 1183568 1193469 1196792 1194765 1190645 1188353 1190579 
3518.803 1197423 1205032 1206760 1194632 1163202 1112042 1047403 980747 
3522.661 926354 895907 893118 912774 942559 968228 978124 967895 941131 
3527.000 907760 879936 867387 874359 898098 931069 965272 994961 1018673 
3531.340 1038800 1058862 1081581 1106528 1129748 1144133 1143601 1123835 
3535.198 1086331 1038036 991407 959859 953815 977493 1028338 1097625 1172372 
3539.537 1239887 1288570 1310471 1302163 1265009 1204633 1128419 1046340 
3543.395 968294 903742 860614 844346 856364 894147 951425 1019570 1088922 
3547.734 1151342 1200281 1232178 1245204 1240087 1218854 1185163 1144365 
3551.592 1103006 1067165 1042188 1029999 1030298 1040162 1056204 1074805 
3555.449 1092642 1107624 1118520 1124898 1127688 1128785 1130645 1136193 
3559.306 1146857 1162471 1180877 1197722 1208388 1208953 1196692 1170611 
3563.164 1130678 1076566 1007813 924329 828013 726507 635246 574858 564108 
3567.503 609431 699293 810452 918020 1004658 1061751 1089952 1096130 1091480 
3571.843 1086663 1089653 1103937 1127024 1152604 1173269 1182970 1179681 
3575.700 1165262 1143435 1119317 1096662 1077728 1064143 1056869 1056736 
3579.558 1064375 1079322 1099419 1120945 1139814 1151674 1153667 1144930 
3583.415 1126061 1098821 1065405 1028670 992238 961785 944584 947871 975201 
3587.755 1022858 1080784 1136425 1180944 1210714 1226862 1232012 1229620 
3591.612 1221512 1207723 1187622 1161109 1130678 1102375 1084471 1083441 
3595.470 1100914 1131542 1165229 1189781 1196892 1184798 1159714 1132970 
3599.327 1119018 1129449 1168152 1231215 1307380 1384390 1451407 1502607 
3603.185 1535957 1551053 1547695 1524186 1479034 1412878 1331044 1245171 
3607.042 1170611 1123370 1111477 1131210 1166624 1198387 1211411 1198918 
3610.899 1163568 1115065 1066767 1031460 1018574 1030663 1063180 1107159 
3614.757 1153667 1195828 1229686 1253013 1264411 1263348 1251850 1234770 
3618.614 1220648 1217558 1229753 1254940 1285646 1312764 1330645 1338389 
3622.472 1339685 1340881 1348925 1368502 1400146 1439239 1477006 1503438 
3626.329 1509224 1489008 1444725 1388745 1344305 1334035 1365776 1424180 
3630.187 1483456 1523022 1534760 1518268 1479899 1429233 1378839 1339984 
3634.044 1319544 1317650 1327720 1340715 1348094 1346133 1335863 1322336 
3637.901 1312033 1310338 1318680 1334633 1353046 1368701 1378606 1382628 
3641.759 1382894 1381698 1378939 1371194 1351650 1311900 1244074 1142903 
3645.616 1007083 840761 655289 468104 299402 169381 93448 83903 148001 
3649.956 284349 478851 705101 933560 1139615 1308942 1436912 1523754 1573932 
3654.295 1593918 1592388 1579884 1567048 1562592 1569210 1584041 1602232 
3658.153 1619692 1634792 1647995 1660801 1674771 1690504 1707402 1723269 
3662.010 1736310 1744527 1747221 1744693 1738738 1731320 1723602 1715319 
3665.868 1704641 1687909 1659736 1614437 1547263 1457424 1350487 1241981 
3669.725 1154099 1104036 1095366 1116294 1150345 1182671 1204633 1212906 
3673.583 1207590 1192606 1175196 1165694 1172571 1196858 1234571 1281924 
3677.440 1338754 1407094 1488078 1579186 1673340 1759963 1828435 1872093 
3681.297 1889763 1885038 1863940 1832694 1796261 1757235 1716284 1673008 
3685.155 1627275 1580283 1535026 1496190 1469925 1461281 1472052 1498650 
3689.012 1534195 1570773 1603729 1632397 1658506 1683053 1706471 1727528 
3692.870 1745625 1761094 1775167 1789640 1805843 1823411 1840115 1852193 
3696.727 1855222 1846537 1825574 1793998 1754840 1712325 1670247 1633428 
3700.584 1607254 1597576 1609249 1643705 1697356 1762159 1826938 1881211 
3704.442 1915222 1922877 1901577 1853358 1783485 1700117 1612342 1528043 
3708.299 1453335 1392268 1347994 1323034 1319644 1338887 1377377 1428236 
3712.157 1481262 1526547 1558502 1575894 1580583 1576060 1565518 1551419 
3716.014 1535325 1518334 1501144 1485052 1471321 1460815 1453867 1449878 
3719.872 1447750 1445788 1443096 1439040 1433588 1426540 1416900 1404102 
3723.729 1388279 1371327 1358564 1357001 1374252 1414639 1476807 1551984 
3727.586 1628106 1694130 1742298 1769245 1775167 1761693 1731087 1684916 
3731.444 1624248 1549723 1462744 1366109 1266571 1174166 1104103 1071849 
3735.301 1088690 1152704 1248494 1354276 1453136 1537021 1604427 1658040 
3739.159 1701082 1737408 1769977 1802250 1836953 1876053 1919116 1961052 
3743.016 1990276 1988479 1938353 1839016 1714354 1595947 1505400 1448382 
3746.874 1419327 1408589 1404468 1395692 1371560 1327088 1264245 1196294 
3750.731 1140711 1112773 1118985 1155362 1211312 1275577 1340017 1400179 
3754.588 1454266 1502075 1543372 1577789 1604460 1622852 1633062 1635723 
3758.446 1632729 1626078 1618162 1611345 1607420 1607620 1611810 1619426 
3762.303 1627807 1634160 1634858 1625812 1604361 1570407 1527145 1480663 
3766.161 1437477 1402573 1378507 1366508 1367804 1384689 1419227 1472651 
3770.018 1542607 1623151 1706870 1786579 1857917 1918350 1967076 2003258 
3773.875 2025694 2033018 2023564 1995868 1949868 1887101 1811033 1728226 
3777.733 1646865 1577390 1529772 1509323 1514810 1537985 1568245 1595780 
3781.590 1614837 1623982 1624548 1619559 1613140 1609715 1612908 1625013 
3785.448 1647463 1679960 1721240 1768779 1818819 1866169 1905105 1930631 
3789.305 1939551 1931097 1907734 1874455 1836554 1799388 1766051 1737241 
3793.163 1711394 1686180 1658772 1627574 1592555 1554611 1515874 1477472 
3797.020 1438774 1397287 1349689 1293256 1227294 1154564 1083973 1031859 
3800.877 1017511 1054710 1139149 1249491 1359760 1453634 1525616 1577490 
3804.735 1615302 1646865 1680592 1722770 1775533 1834591 1890928 1936522 
3808.592 1967076 1983120 1986981 1982088 1971004 1954728 1932761 1903241 
3812.450 1864173 1813762 1752677 1684417 1616898 1563124 1536822 1545933 
3816.307 1585405 1640080 1692234 1729357 1746323 1742730 1721806 1689207 
3820.165 1654149 1626976 1615502 1620191 1634858 1651588 1665690 1676234 
3824.022 1685381 1697090 1715252 1743096 1780590 1823344 1862875 1889630 
3827.879 1896552 1880811 1843908 1792102 1734414 1681157 1642840 1626942 
3831.737 1634792 1661466 1698254 1735046 1763789 1779226 1779093 1762292 
3835.594 1729457 1681955 1623450 1559267 1497720 1447717 1416202 1405797 
3839.452 1413742 1433688 1458854 1484387 1508825 1533097 1560165 1592787 
3843.309 1632729 1678895 1728026 1775300 1815958 1846104 1862742 1864173 
3847.167 1849498 1818287 1771541 1711560 1641011 1564288 1486116 1411814 
3851.024 1348559 1306849 1300567 1343407 1436680 1559267 1674804 1757867 
3854.881 1804412 1824975 1833693 1841812 1856420 1879181 1907468 1935690 
3858.739 1956891 1964746 1955327 1926904 1881178 1821947 1754773 1686246 
3862.596 1622952 1572635 1543671 1543871 1576426 1636787 1712192 1784849 
3866.454 1838717 1863441 1853558 1810801 1744294 1673839 1624248 1616100 
3870.311 1651122 1712092 1773969 1818586 1839116 1837918 1824376 1811399 
3874.168 1810102 1824709 1850696 1878116 1897684 1902875 1891860 1866669 
3878.026 1832694 1797625 1770110 1757934 1764055 1784583 1809736 1828768 
3881.883 1834092 1823777 1800586 1771042 1744859 1732750 1745292 1786446 
3885.741 1850097 1920514 1981622 2022565 2039942 2035914 2014309 1980423 
3889.598 1939418 1897284 1860679 1835290 1825308 1831530 1852426 1884039 
3893.456 1922244 1962450 2000162 2031020 2050828 2056188 2044669 2015075 
3897.313 1968274 1907568 1838717 1769378 1707069 1657874 1624382 1605791 
3901.170 1598807 1600503 1609017 1625147 1650922 1688907 1739304 1799488 
3905.028 1864273 1928069 1986182 2035881 2075763 2105262 2124407 2133098 
3908.885 2131766 2120978 2102399 2078494 2052226 2026626 2003990 1985749 
3912.743 1971237 1958522 1945176 1928834 1907701 1881444 1851095 1820150 
3916.600 1793200 1775533 1771541 1783784 1812098 1853624 1902908 1952731 
3920.458 1995635 2025228 2038311 2034616 2017305 1992207 1965812 1945342 
3924.315 1936023 1940117 1956159 1980557 2009349 2037645 2062946 2081790 
3928.172 2091112 2088282 2070403 2036813 1989011 1931829 1873557 1823411 
3932.030 1790472 1780191 1793200 1824842 1867867 1913991 1956459 1990675 
3935.887 2014809 2028424 2032052 2026726 2012712 1989610 1957291 1916387 
3939.745 1869530 1822113 1781023 1755073 1751247 1772339 1814960 1870030 
3943.602 1926371 1973900 2007519 2026826 2034749 2035115 2030920 2023098 
3947.459 2011214 1994370 1973766 1953563 1940316 1941548 1962483 2004789 
3951.317 2064477 2134629 2205192 2267772 2315604 2345852 2359011 2358811 
3955.174 2349883 2337257 2325398 2317204 2313573 2313306 2313839 2310808 
3959.032 2299948 2278064 2244524 2201462 2153942 2109058 2073100 2050195 
3962.889 2040175 2039809 2043904 2047199 2046500 2041107 2032618 2023464 
3966.747 2015508 2009682 2005355 2001460 1997699 1995169 1996367 2003857 
3970.604 2019569 2043071 2071269 2099469 2122776 2138092 2144685 2145218 
3974.461 2143819 2145151 2152311 2166130 2185177 2207157 2228704 2248055 
3978.319 2263775 2275333 2281928 2282761 2276466 2262010 2239728 2211753 
3982.176 2182114 2155674 2137126 2128836 2131033 2141289 2155440 2168893 
3986.034 2178118 2181481 2179217 2173322 2166363 2161401 2160902 2166130 
3989.891 2178151 2196633 2220578 2248155 2276965 2304579 2328429 2346985 
3993.749 2359877 2367240 2370205 2369705 2367040 2361910 2354680 2344919 
3997.606 2333060 2319702 2305645 2291688 2278731 2267239 2257314 
##END=
