##TITLE=mb_2 Sep 02 11:56:52 2026 (GMT+02:00)
##JCAMP-DX=5.01  $$ Nicolet v. 970
##DATATYPE=INFRARED SPECTRUM
##ORIGIN=Vojna akademija
##OWNER=Nicolet
##LONGDATE=2026/09/02
##TIME=11:57:18
##SPECTROMETER/DATA SYSTEM=Nicolet iS20
##DATA PROCESSING=
Ratio against background
%Transmittance->Absorbance
Truncated
ElementMultiply or ElementDivide
##COMMENTS=
Number of sample scans: 8
Collection length: 11,90 sec
Sample gain: 8,0
Background collected on: Wed Sep 02 11:53:24 2026 (GMT+02:00);
Number of background scans: 8
Background gain: 8,0
Sample spacing:  1,000
Number of scan points: 12415
Resolution points: 8286
Number of FFT points: 65536
Apodization: N-B strong;
Phase correction: Mertz;
Laser frequency: 15798,00 cm-1
Number of rejected sample scans: 0
Number of rejected background scans: 0
Bench serial number: BER2010005;
##RESOLUTION= 4,000
##XUNITS=1/CM
##YUNITS=ABSORBANCE
##FIRSTX=400.156891
##LASTX=4000.123047
##FIRSTY=0.015414
##MAXX=4000.123047
##MINX=400.156891
##MAXY=0.155120
##MINY=-0.000396
##XFACTOR=1.000000
##YFACTOR=1.000000E-009
##NPOINTS=7468
##DELTAX=0.482117
##ZPD=6100
##XYDATA=(X++(Y..Y))
400.157 15413599 14808043 14216407 13640724 13068159 12488129 11890143 
403.532 11260095 10574768 9816666 8981602 8092337 7193907 6329371 5512926 
407.389 4723169 3915118 3057478 2173822 1371360 813904 700288 1178784 
411.246 2296384 3973297 6008079 8113234 9965543 11327735 12083271 12256511 
415.103 11960469 11339503 10520620 9590398 8626536 7713241 6965365 6517754 
418.959 6443696 6687072 7085380 7482368 7792778 8000932 8132376 8219857 
422.816 8283107 8316544 8293847 8182141 7965598 7659988 7313986 6993951 
426.673 6766052 6677045 6748720 6972503 7316615 7726293 8135448 8477475 
430.530 8685655 8714288 8552185 8234580 7835993 7459075 7207147 7151497 
434.387 7326589 7716748 8270680 8909761 9558117 10161615 10682746 11094797 
438.244 11355998 11404672 11173155 10609094 9713784 8563270 7326656 6239715 
442.101 5535276 5394351 5860350 6830336 8071780 9314751 10307625 10855157 
445.958 10859233 10315395 9325821 8071206 6788735 5701963 4959181 4628016 
449.815 4685655 5045523 5575583 6142280 6634483 6994389 7233930 7421728 
453.672 7650680 7996748 8502445 9164202 9936930 10723499 11387834 11770869 
457.529 11731073 11224869 10343117 9292274 8302054 7575923 7245048 7348392 
461.386 7843044 8600039 9438059 10158088 10623083 10793976 10730325 10547134 
465.243 10369551 10283535 10308608 10396259 10457519 10410852 10215210 
468.617 9889877 9500810 9138383 8879933 8774837 8835531 9037860 9327920 
472.474 9632979 9884963 10028200 10035253 9906386 9666247 9356561 9028657 
476.331 8740724 8542656 8462745 8497817 8614099 8755802 8865763 8906176 
480.188 8861332 8741705 8575571 8400414 8251903 8154860 8122416 8152767 
484.045 8232520 8339409 8448893 8541203 8607677 8652968 8691976 8738121 
487.902 8792148 8832893 8820957 8705971 8449265 8045789 7538161 7015131 
491.759 6582204 6337407 6327354 6531511 6866825 7223991 7511865 7675130 
495.616 7710846 7654018 7557615 7462513 7386238 7320355 7244475 7143649 
499.473 7024560 6912910 6851037 6875913 7003076 7219376 7491234 7780803 
503.330 8063915 8335458 8600208 8857714 9091620 9265195 9331441 9256394 
507.187 9035559 8706613 8339241 8016762 7800570 7717524 7753277 7864671 
511.044 7992529 8082278 8100068 8036642 7904789 7728385 7537285 7357390 
514.901 7211021 7118623 7095349 7148701 7275102 7458805 7671791 7881440 
518.758 8057906 8178461 8229144 8206148 8109925 7944405 7714859 7429716 
522.615 7100536 6744985 6385756 6046951 5753633 5528497 5388011 5341550 
526.471 5387943 5513597 5691589 5886144 6056829 6163083 6177131 6086868 
530.328 5904885 5666344 5424378 5235999 5144992 5176980 5333667 5598372 
534.185 5941161 6325640 6714429 7067733 7350380 7529969 7581486 7496189 
538.042 7286423 6991089 6666850 6384781 6207145 6170779 6280860 6506453 
541.899 6788264 7051063 7230224 7281099 7193672 6992133 6731053 6479446 
545.756 6301265 6240320 6303182 6458392 6643601 6790688 6842790 6772850 
549.613 6590412 6339895 6084179 5878318 5758367 5727545 5762900 5825458 
553.470 5879796 5905019 5901291 5887185 5889435 5931488 6023600 6159856 
557.327 6320697 6482270 6621632 6725164 6792471 6834207 6868440 6915267 
561.184 6991661 7103803 7244846 7392204 7513315 7570629 7533442 7387889 
565.041 7144322 6838044 6518830 6243681 6055182 5973477 5991113 6081794 
568.898 6206775 6332162 6439559 6526667 6603465 6682362 6769956 6861338 
572.755 6942537 6994692 7003312 6963176 6881064 6771975 6655747 6548195 
576.612 6455702 6374728 6295248 6206875 6104105 5990307 5875228 5772906 
580.469 5694107 5641672 5609750 5588337 5567930 5547794 5537760 5556419 
584.326 5623109 5750141 5935686 6162881 6405831 6637074 6837539 6999844 
588.182 7125696 7220656 7287265 7319917 7306573 7233425 7094945 6898636 
592.039 6669071 6436466 6227480 6054208 5911939 5785531 5659530 5529806 
595.896 5407133 5314078 5274366 5300829 5387709 5511048 5635562 5730734 
599.753 5781905 5797754 5804873 5836674 5916574 6045102 6197330 6329170 
603.610 6392515 6347123 6178778 5902030 5560312 5209808 4909985 4708799 
607.467 4630360 4672726 4808191 4995479 5186302 5341516 5441657 5487726 
611.324 5500242 5510511 5549573 5634925 5766190 5924669 6082298 6210271 
615.181 6291180 6325741 6334616 6350620 6407412 6529964 6723313 6971190 
619.038 7237468 7479031 7650579 7716715 7660730 7485267 7214862 6888032 
622.895 6555124 6264153 6051721 5936962 5915297 5961518 6033343 6087036 
626.752 6085086 6008045 5860048 5667955 5475478 5328501 5269536 5320182 
630.609 5476082 5704816 5956647 6175988 6314579 6348939 6281364 6140129 
634.466 5965985 5803060 5682659 5618142 5607132 5638046 5700888 5790903 
638.323 5910629 6064556 6252354 6463840 6676271 6858274 6978597 7010451 
642.180 6939911 6766792 6505915 6185231 5843323 5530712 5298012 5191365 
646.036 5238850 5439140 5755177 6117547 6444066 6651608 6688822 6549574 
649.893 6276759 5944923 5638886 5430316 5353793 5405053 5544606 5717775 
653.750 5867168 5952179 5955841 5881945 5750779 5589477 5429108 5296704 
657.607 5214839 5200687 5263936 5404449 5611697 5865892 6137239 6392717 
661.464 6600673 6732331 6768677 6704132 6548431 6325102 6067076 5811924 
665.321 5592364 5440281 5384555 5448099 5636402 5916809 6214472 6445949 
669.178 6577729 6631085 6649388 6668465 6706555 6769249 6851677 6941190 
673.035 7021395 7076186 7090769 7055171 6965836 6827206 6652248 6461923 
676.892 6281868 6133811 6030790 5973577 5952246 5950768 5954094 5953825 
680.749 5949122 5945730 5949659 5963600 5983790 6002031 6009120 6001292 
684.606 5981740 5960275 5950264 5962257 6000150 6058643 6123529 6174510 
688.463 6192120 6161772 6079172 5953422 5807156 5671480 5583302 5576187 
692.320 5669634 5866026 6149438 6490847 6857197 7222408 7574237 7915385 
696.177 8257746 8612578 8979945 9345965 9682578 9957982 10151135 10256224 
700.034 10287166 10267488 10222232 10165041 10097751 10015790 9918183 
703.408 9819344 9751938 9757699 9878794 10138009 10529514 11016183 11541096 
707.265 12046375 12486697 12846333 13136799 13390687 13645442 13933911 
710.640 14275607 14675078 15126342 15618982 16145021 16699966 17284514 
714.015 17903446 18563926 19273694 20040798 20872180 21770052 22732488 
717.390 23749938 24807314 25882180 26945646 27964440 28895492 29690546 
720.765 30300528 30680920 30808170 30685010 30345262 29841994 29239954 
724.139 28598224 27957196 27340506 26755348 26199412 25669040 25161186 
727.514 24675320 24208318 23752844 23298334 22833998 22354772 21865516 
730.889 21381234 20921792 20507610 20151884 19857212 19616222 19415766 
734.264 19242868 19088942 18953274 18840766 18759318 18714310 18704730 
737.639 18720434 18744408 18752086 18718358 18622856 18453764 18213416 
741.013 17919502 17603152 17298996 17039402 16845194 16720593 16655447 
744.388 16631726 16630590 16639369 16655276 16681718 16722107 16772626 
747.763 16816984 16826768 16771559 16625460 16377760 16038291 15634576 
751.138 15205396 14788947 14418005 14110664 13870687 13690852 13558605 
754.513 13462111 13394104 13351870 13335162 13342850 13369535 13405210 
757.888 13437538 13455276 13451688 13428004 13392704 13360412 13345412 
761.262 13358328 13401247 13468264 13545648 13617167 13669446 13693998 
764.637 13690406 13665103 13628997 13592893 13565783 13553306 13556178 
768.012 13571492 13592449 13610261 13614602 13596312 13549716 13475236 
771.387 13380435 13278482 13185433 13113371 13065530 13034594 13004208 
774.762 12954125 12866845 12736555 12570899 12389419 12217114 12077206 
778.136 11982097 11930294 11906182 11886840 11848020 11772674 11655678 
781.511 11504588 11336850 11171591 11026651 10911623 10826247 10762251 
784.886 10707265 10648753 10577553 10489697 10384449 10263009 10126037 
788.261 9973545 9806634 9628880 9449945 9284150 9147722 9054775 9010051 
792.118 9007108 9027372 9047231 9042935 8999092 8913414 8797896 8675582 
795.975 8571989 8512075 8513123 8582499 8718918 8914530 9156995 9432133 
799.832 9726626 10026980 10320518 10596362 10843232 11052889 11220585 
803.206 11347223 11438451 11506288 11566447 11635530 11727703 11851357 
806.581 12004306 12174346 12339612 12475478 12558655 12575095 12524584 
809.956 12422184 12294378 12172097 12085315 12054381 12086780 12176868 
813.331 12308319 12456143 12591705 12690734 12733382 12710113 12622268 
816.706 12480764 12301945 12103951 11901653 11703433 11513433 11333789 
820.081 11169211 11028996 10924466 10862631 10839869 10837967 10826960 
823.455 10771931 10648007 10448932 10193330 9917132 9663707 9468028 9342985 
827.312 9279716 9252264 9233411 9204644 9164473 9127521 9115644 9144642 
831.169 9217301 9319762 9428206 9516694 9566551 9572241 9539250 9479339 
835.026 9403250 9319356 9233005 9150294 9082552 9044862 9052137 9113647 
838.883 9225458 9368648 9512494 9626406 9687288 9689693 9648732 9594869 
842.740 9563231 9582979 9669737 9820123 10016468 10229967 10433014 10601761 
846.597 10721461 10786197 10797033 10759500 10680606 10568148 10430231 
849.972 10274680 10111792 9953507 9812904 9703279 9634029 9607674 9619428 
853.829 9657168 9704601 9745331 9768712 9771525 9758342 9740146 9729675 
857.686 9735944 9763425 9809786 9868083 9928759 9982292 10020232 10035457 
861.543 10022538 9977850 9901166 9797111 9676377 9555881 9454550 9390113 
865.400 9374606 9410598 9489736 9594869 9705482 9800466 9865846 9896521 
869.256 9897640 9880658 9861439 9854931 9870557 9910386 9968730 10034236 
873.113 10093139 10133328 10147708 10134583 10098532 10046680 9988699 
876.488 9932624 9885437 9852626 9838696 9846627 9877099 9927980 9993074 
880.345 10064585 10135431 10201030 10262365 10323809 10391270 10466004 
883.720 10542619 10607295 10641962 10630893 10567232 10458367 10327033 
887.095 10204490 10120474 10097073 10139976 10238074 10366191 10495671 
890.470 10598264 10654798 10658465 10612863 10529345 10422221 10306878 
893.844 10194212 10091342 10000193 9918421 9842661 9769525 9697893 9628677 
897.701 9564484 9505721 9451232 9397461 9341022 9282830 9229418 9192798 
901.558 9187316 9221193 9291225 9378974 9457462 9495290 9471009 9382326 
905.415 9249489 9109519 9003353 8964588 9005451 9115102 9262689 9410497 
909.272 9525635 9588263 9596935 9564722 9512528 9458818 9417539 9394481 
913.129 9387676 9391265 9397596 9400000 9393296 9376198 9351280 9325686 
916.986 9309539 9313093 9343662 9402302 9482624 9574274 9666315 9752853 
920.843 9835239 9922217 10025759 10152728 10301619 10459318 10605427 
924.218 10716639 10776008 10778385 10731480 10653304 10565262 10488950 
927.593 10439123 10422764 10440005 10486132 10553109 10632625 10717759 
930.967 10803657 10888009 10971427 11054995 11138411 11218170 11285294 
934.342 11327395 11332429 11292741 11210316 11097959 10976796 10868338 
937.717 10789560 10745540 10728661 10721121 10702714 10657175 10577756 
941.092 10469330 10345764 10226235 10128037 10064450 10040679 10054582 
944.467 10096361 10152084 10207543 10249575 10272034 10277768 10279261 
947.841 10294155 10341692 10434405 10571408 10736302 10900003 11030287 
951.216 11098673 11092079 11016319 10894804 10759704 10643524 10570695 
954.591 10551208 10580880 10645698 10728694 10814323 10892324 10959364 
957.966 11015571 11063017 11102956 11134909 11156429 11164485 11156972 
961.341 11133311 11096328 11052073 11008604 10975640 10961810 10971936 
964.716 11006667 11061997 11129232 11197566 11257239 11300631 11323960 
968.090 11327498 11314880 11291517 11263768 11238163 11219870 11212458 
971.465 11216708 11229390 11244352 11252104 11242822 11208684 11145822 
974.840 11055879 10946383 10828455 10714057 10613542 10532977 10472046 
978.215 10424936 10382378 10334396 10273493 10198588 10115285 10035457 
981.590 9972493 9938761 9938252 9967510 10013077 10058583 10089884 10100532 
985.447 10094360 10084491 10087611 10115455 10169552 10238481 10302060 
988.821 10336262 10324148 10261958 10161276 10045392 9940795 9871167 9848559 
992.678 9873031 9934455 10019215 10113827 10209646 10303248 10392967 
996.053 10475677 10545436 10592322 10606446 10581932 10519670 10428059 
999.428 10322317 10220366 10136279 10079642 10051801 10048071 10060448 
1002.803 10081710 10108129 10140349 10182441 10238108 10308711 10391304 
1006.178 10477375 10555859 10616530 10652795 10664068 10655953 10639212 
1009.552 10625019 10622337 10635715 10664068 10702748 10744556 10783005 
1012.927 10812421 10828863 10828760 10808956 10766327 10698740 10607261 
1016.302 10496994 10376881 10259515 10157002 10079303 10031693 10013383 
1019.677 10018401 10037254 10061500 10084084 10102737 10119015 10137771 
1023.052 10162734 10195229 10231764 10264638 10283909 10280482 10249982 
1026.427 10195400 10126816 10059295 10009890 9993006 10016332 10081982 
1029.802 10186376 10322147 10480362 10650995 10821729 10976966 11100747 
1033.177 11176045 11191208 11144326 11045173 10914307 10776754 10656428 
1036.553 10566009 10506805 10469093 10439564 10409358 10379664 10361576 
1039.928 10372741 10427210 10526493 10655545 10785450 10880909 10910094 
1043.303 10857501 10726419 10539462 10328323 10127732 9965814 9858930 
1046.678 9812057 9820597 9875031 9962763 10070655 10185562 10293001 10380343 
1050.536 10437460 10460608 10453004 10426158 10395749 10376610 10379257 
1053.911 10405286 10448015 10493261 10525339 10532230 10507992 10456365 
1057.286 10387639 10317396 10261347 10232171 10237158 10277836 10350310 
1060.661 10446929 10557862 10671234 10774411 10855462 10902449 10907511 
1064.037 10866402 10781850 10661657 10520112 10374302 10240279 10131191 
1067.412 10054107 10009179 9989615 9983681 9974833 9944659 9877810 9765086 
1071.269 9607945 9421298 9233649 9081571 9000174 9015160 9130668 9328564 
1075.127 9569091 9804194 9987717 10087611 10094563 10021893 9899233 9760037 
1078.984 9635554 9546702 9502064 9502842 9545144 9623392 9731098 9859134 
1082.842 9994837 10119999 10215685 10264332 10255376 10190480 10081236 
1086.217 9947711 9811582 9693589 9606251 9555001 9536914 9543925 9563773 
1090.074 9583250 9589652 9572444 9525534 9447981 9346236 9232701 9122614 
1093.932 9032683 8975852 8957350 8974770 9018306 9071793 9116997 9140074 
1097.789 9132123 9092500 9028015 8951363 8875840 8812030 8764660 8731055 
1101.647 8703807 8673993 8636068 8590408 8544109 8507277 8489673 8495484 
1105.504 8521706 8559045 8596828 8627517 8649960 8670410 8698534 8743733 
1109.361 8809730 8893122 8984342 9073824 9153881 9223428 9286384 9348300 
1113.219 9410768 9468841 9509717 9517744 9479136 9388251 9250031 9080252 
1117.076 8902321 8739169 8613186 8539717 8526571 8573476 8672303 8807262 
1120.934 8956437 9095443 9200481 9254126 9251181 9199398 9118452 9031229 
1124.791 8958736 8909795 8881048 8856970 8820348 8759657 8676393 8586250 
1128.649 8514677 8487714 8520219 8611192 8743023 8887880 9016005 9107218 
1132.506 9154558 9164372 9150531 9127622 9105966 9088507 9073722 9059579 
1136.363 9048279 9047467 9068646 9121735 9210601 9329850 9466267 9601474 
1140.221 9719544 9811243 9876319 9921776 9959610 10000939 10051598 10112267 
1144.078 10178744 10244587 10303248 10350582 10384720 10405421 10414211 
1147.453 10413499 10407153 10400535 10400128 10412582 10441906 10489154 
1150.829 10550766 10620639 10691337 10756918 10813983 10861611 10899425 
1154.204 10926573 10939892 10934966 10907886 10858044 10789696 10712766 
1157.579 10639858 10583155 10551038 10546082 10564278 10596871 10634085 
1160.954 10665528 10683221 10682270 10660910 10620571 10565976 10504700 
1164.330 10445877 10398227 10367244 10353263 10351159 10351464 10344644 
1167.705 10323708 10287199 10238210 10183493 10128207 10073606 10015993 
1171.080 9948625 9865439 9764374 9649985 9531969 9422855 9331712 9262453 
1174.938 9211582 9171174 9131006 9083432 9026458 8962728 8898803 8841313 
1178.795 8794820 8759927 8733185 8708743 8680550 8644755 8600648 8550800 
1182.652 8500621 8456495 8424096 8407136 8406360 8419670 8442845 8471495 
1186.510 8501533 8530086 8555768 8577227 8592773 8600208 8596558 8580032 
1190.367 8551104 8514136 8475314 8443183 8424839 8423318 8438386 8466124 
1194.225 8500992 8539142 8578748 8621129 8668382 8721421 8778286 8833976 
1198.082 8881488 8914530 8929412 8926807 8910540 8886426 8859540 8833231 
1201.940 8808615 8785048 8762801 8743564 8730785 8728655 8740149 8765675 
1205.797 8801785 8841922 8877227 8898973 8902422 8887170 8858425 8825860 
1209.654 8801852 8797829 8820551 8870361 8940100 9015870 9080624 9119873 
1213.512 9123730 9090977 9028522 8949807 8869990 8802563 8756073 8733490 
1217.369 8732407 8746843 8770915 8798572 8826300 8851187 8871850 8887406 
1221.227 8896537 8898262 8891228 8874420 8846825 8808108 8759116 8702793 
1225.084 8643571 8588616 8545157 8519712 8515758 8532755 8566548 8610144 
1228.942 8655875 8697960 8732880 8760570 8783256 8804253 8825894 8849598 
1232.799 8875029 8900393 8923324 8941351 8952006 8952851 8941893 8918149 
1236.656 8881826 8834888 8781870 8729027 8683390 8652022 8640698 8651988 
1240.514 8685452 8736904 8800297 8867419 8931508 8987285 9032785 9068105 
1244.371 9095646 9117708 9135574 9149008 9157502 9159972 9157942 9154727 
1248.229 9155066 9163491 9182713 9212022 9248000 9286825 9325787 9365025 
1252.086 9407686 9457497 9514967 9576340 9631861 9669127 9677157 9650731 
1255.943 9593785 9518184 9441276 9378364 9339465 9326972 9336757 9361437 
1259.801 9395801 9438771 9493156 9562926 9649748 9750345 9857574 9961678 
1263.658 10053972 10129190 10185901 10224946 10248014 10256122 10250355 
1267.034 10232680 10207814 10183290 10167110 10166737 10184545 10217924 
1270.409 10259787 10302027 10337145 10362086 10377696 10387265 10394019 
1273.784 10399517 10404403 10408951 10415738 10430163 10459555 10511150 
1277.159 10588383 10688960 10803725 10918826 11019309 11091840 11127940 
1280.535 11125595 11088713 11025359 10947776 10870274 10806578 10768875 
1283.910 10764119 10791395 10842145 10901396 10953043 10983762 10989369 
1287.285 10976150 10960213 10959669 10990491 11059720 11163772 11289816 
1290.660 11421034 11543070 11645876 11726545 11788572 11838997 11885648 
1294.036 11936936 11999708 12078841 12177072 12292742 12420001 12547195 
1297.411 12660951 12748941 12803948 12826573 12824901 12812138 12800944 
1300.786 12799750 12810159 12827904 12845241 12855514 12855856 12847971 
1304.161 12835925 12823434 12810944 12795450 12771154 12732767 12678486 
1307.536 12611557 12540136 12473875 12422320 12390851 12379634 12383828 
1310.912 12394942 12402442 12395385 12365043 12305865 12218135 12107460 
1314.287 11984857 11865523 11763481 11690702 11653602 11650913 11674398 
1317.662 11710444 11744894 11765558 11767090 11750647 11723448 11694582 
1321.037 11672083 11661668 11664902 11681138 11708505 11744826 11788300 
1324.413 11836682 11887861 11938740 11985946 12026072 12056459 12076627 
1327.788 12087120 12090731 12091038 12092401 12099180 12115262 12143951 
1331.163 12187465 12246695 12321511 12410182 12510397 12619368 12734644 
1334.538 12854115 12976110 13099370 13223278 13347667 13472945 13600620 
1337.914 13732229 13868326 14007409 14144859 14274100 14387659 14481001 
1341.289 14552878 14606196 14646153 14679362 14712060 14749182 14793850 
1344.664 14845721 14902606 14960356 15015095 15065243 15112036 15160617 
1348.039 15218916 15295722 15397326 15525258 15674662 15835561 15994320 
1351.415 16138075 16258450 16352987 16426070 16486811 16545907 16611828 
1354.790 16689362 16778824 16878298 16985924 17102880 17233592 17385414 
1358.165 17566268 17783614 18045622 18361432 18744858 19215540 19795928 
1361.540 20504518 21342322 22281346 23263130 24215746 25076440 25805870 
1364.916 26392426 26842926 27175218 27414686 27596976 27770126 27988434 
1368.291 28310534 28781756 29424998 30240952 31217594 32344588 33625532 
1371.666 35084632 36759660 38679948 40836976 43148088 45449124 47540296 
1375.041 49240556 50449340 51146536 51352644 51090480 50368220 49190640 
1378.417 47583696 45618904 43413520 41095716 38782792 36552432 34438592 
1381.792 32450796 30586804 28844568 27223262 25717094 24310910 22979510 
1385.167 21693174 20426890 19171766 17940980 16764946 15676826 14697253 
1388.542 13826490 13052930 12363612 11750375 11209908 10741057 10340470 
1391.918 10001583 9714868 9471618 9266481 9096966 8961713 8856463 8772030 
1395.775 8699683 8635527 8584020 8556308 8564318 8612206 8689846 8772166 
1399.632 8829174 8841719 8808175 8743530 8668923 8605447 8565669 8552693 
1403.490 8560972 8580539 8602438 8623901 8648101 8681497 8727809 8786536 
1407.347 8853521 8924609 8997738 9072538 9148974 9223902 9289769 9336858 
1411.205 9357408 9350907 9324941 9293729 9271457 9266278 9277651 9298875 
1415.062 9321928 9344373 9374674 9433014 9547210 9740891 10019791 10355672 
1418.920 10692288 10968979 11156769 11267712 11338040 11405591 11499042 
1422.295 11637367 11829872 12077070 12370055 12691075 13017284 13329320 
1425.670 13618569 13889263 14157661 14448834 14794055 15223308 15756804 
1429.045 16398128 17133626 17936906 18780734 19643574 20509658 21365364 
1432.421 22199042 23000052 23767368 24517424 25288586 26143210 27155676 
1435.796 28381342 29803488 31314376 32763180 34044144 35141356 36107240 
1439.171 37015732 37935280 38910660 39960492 41079108 42247536 43442560 
1442.546 44644584 45843132 47031964 48206320 49362708 50500328 51627656 
1445.922 52764724 53939892 55176896 56479920 57825816 59172060 60482576 
1449.297 61751296 63004656 64291148 65656768 67122088 68667344 70234320 
1452.672 71752360 73155800 74416328 75543720 76573920 77547560 78486176 
1456.047 79365568 80103304 80598672 80810824 80787912 80620368 80372112 
1459.422 80069888 79721520 79332552 78912336 78469704 78003008 77493448 
1462.798 76899360 76162176 75217920 74024024 72581280 70921512 69079432 
1466.173 67066132 64861840 62449020 59834084 57063708 54200292 51314608 
1469.548 48456272 45621332 42769056 39836524 36796480 33717052 30786830 
1472.923 28228634 26156336 24533552 23227966 22095346 21043432 20034136 
1476.299 19073466 18184530 17385930 16678033 16046714 15474094 14947427 
1479.674 14460960 14014356 13605611 13225943 12860736 12497473 12132196 
1483.049 11773593 11437839 11143612 10902653 10714634 10566995 10439259 
1486.424 10312816 10178134 10040882 9918725 9832053 9790028 9781929 9778201 
1490.282 9747228 9669466 9546093 9390079 9216827 9036608 8855280 8677407 
1494.139 8508528 8357075 8234175 8148682 8099359 8072489 8046194 8001270 
1497.997 7931818 7844765 7753547 7667879 7589679 7511730 7423279 7314593 
1501.854 7182218 7028197 6860765 6692321 6535917 6410270 6341139 6365246 
1505.712 6525289 6839963 7245385 7587488 7737222 7677592 7473367 7198994 
1509.569 6910486 6643736 6417970 6241698 6109852 6008247 5917716 5822906 
1513.426 5716969 5603339 5493027 5402269 5345910 5331117 5350439 5383046 
1517.284 5405892 5406462 5389319 5372344 5380630 5437697 5558634 5733219 
1521.141 5917346 6040869 6050747 5943949 5756789 5537860 5329105 5165378 
1524.999 5068821 5047200 5089505 5167524 5243846 5287111 5282616 5230566 
1528.856 5140935 5025277 4895274 4759782 4627614 4511892 4431078 4407982 
1532.714 4460603 4583311 4736032 4858850 4910655 4881300 4786515 4651325 
1536.571 4503354 4367583 4268426 4232323 4285123 4445071 4705383 5022059 
1540.428 5322397 5543096 5657717 5671480 5605790 5487222 5345742 5209876 
1544.286 5101675 5030104 4988072 4957874 4923423 4877782 4825311 4778475 
1548.143 4751106 4753249 4781624 4817270 4831275 4801591 4723939 4611942 
1552.001 4487285 4372068 4280205 4211646 4151494 4076367 3966877 3816432 
1555.858 3635799 3448996 3298496 3247384 3385143 3788488 4404735 4989781 
1559.715 5317969 5380060 5281409 5118639 4945742 4793450 4677181 4605345 
1563.573 4578623 4586559 4607086 4611004 4576346 4496223 4383481 4262771 
1567.430 4167652 4131624 4176818 4302792 4475367 4638331 4740822 4765812 
1571.288 4726250 4648813 4557795 4472521 4408149 4378226 4398275 4484740 
1575.145 4645129 4862737 5088868 5260682 5335948 5315788 5231841 5122629 
1579.003 5017501 4934917 4880999 4852182 4839115 4832481 4827489 4826316 
1582.860 4836066 4863340 4910186 4971883 5037747 5096277 5140835 5170408 
1586.717 5189286 5201995 5210077 5209205 5192103 5151899 5086924 5003389 
1590.575 4914408 4834960 4778475 4753518 4761792 4800217 4862603 4941553 
1594.432 5029601 5117600 5195792 5253438 5282382 5279397 5247905 5196294 
1598.290 5136342 5079750 5035735 5010328 5006339 5024204 5063189 5120584 
1602.147 5191466 5267021 5336015 5386770 5410555 5405825 5377611 5336652 
1606.005 5294221 5259374 5236267 5222786 5213363 5202364 5186570 5166116 
1609.862 5143182 5118874 5091886 5058161 5013109 4954355 4882172 4801356 
1613.719 4718848 4643120 4584114 4550697 4547917 4572093 4608392 4634279 
1617.577 4630795 4591247 4520195 4428902 4331003 4241992 4176584 4147112 
1621.434 4160961 4215828 4294159 4365006 4398443 4379230 4314873 4227505 
1625.292 4142964 4082120 4055831 4066567 4106570 4161330 4211445 4240788 
1629.149 4238880 4202177 4132293 4033524 3910638 3769002 3615518 3459182 
1633.006 3312485 3195444 3137135 3173882 3336125 3620129 3965940 4279535 
1636.864 4492206 4583980 4573332 4491804 4371834 4240788 4119314 4022522 
1640.721 3956243 3917759 3897732 3885563 3871789 3852400 3829602 3811251 
1644.579 3810014 3841536 3920802 4052286 4219374 4378561 4481895 4500308 
1648.436 4432015 4292184 4101118 3879512 3646692 3432664 3284074 3269685 
1652.294 3468501 3890210 4382008 4706655 4778743 4675339 4505899 4340039 
1656.151 4211914 4130821 4089946 4074962 4068407 4055497 4027270 3982459 
1660.008 3926252 3867678 3816766 3780834 3763053 3761148 3766729 3769436 
1663.866 3761515 3739724 3705102 3661594 3615251 3573021 3542721 3533034 
1667.723 3551841 3602855 3681978 3775319 3860590 3915653 3927589 3895492 
1671.581 3828165 3739357 3647427 3571986 3534972 3556485 3644520 3783608 
1675.438 3932303 4045062 4093459 4078575 4020247 3944072 3869215 3805668 
1679.296 3751957 3697416 3628315 3536675 3427788 3323069 3260838 3290150 
1683.153 3458782 3767799 4130487 4400785 4495721 4435765 4289039 4114565 
1687.010 3950593 3818905 3728562 3681243 3671285 3687224 3710917 3722346 
1690.868 3704968 3646859 3545761 3408519 3252425 3101626 2988011 2947477 
1694.725 3005961 3157828 3345975 3484667 3507046 3405714 3219143 3009664 
1698.583 2844508 2790648 2896573 3146380 3437440 3644119 3710683 3653976 
1702.440 3522578 3361234 3206893 3085375 3012300 2991614 3011566 3048135 
1706.297 3075197 3078334 3056611 3019140 2977736 2942607 2918455 2905546 
1710.155 2899475 2895306 2889669 2882197 2875660 2873459 2877428 2886500 
1714.012 2896307 2903045 2907881 2923392 2973232 3083906 3270052 3513292 
1717.870 3760212 3946079 4035129 4029912 3958517 3852835 3739324 3634296 
1721.727 3543857 3467265 3398668 3332018 3263709 3194910 3130827 3077132 
1725.585 3036824 3009831 2993783 2985209 2981205 2979170 2975734 2964291 
1729.442 2934634 2875927 2781078 2651878 2502920 2363309 2274933 2289389 
1733.299 2447137 2738629 3077433 3347911 3486470 3498762 3428958 3322769 
1737.157 3219344 3144878 3115075 3131795 3181358 3236669 3269818 3266112 
1741.014 3227489 3168341 3106665 3058346 3031352 3024278 3027982 3030517 
1744.872 3022176 2998721 2962123 2918889 2876961 2842440 2818695 2807056 
1748.729 2808957 2829033 2874793 2951581 3056077 3171579 3270720 3326241 
1752.587 3323437 3263375 3162033 3043998 2939137 2876627 2877428 2946643 
1756.444 3066421 3200284 3306075 3358663 3355458 3313053 3255697 3210398 
1760.301 3197747 3227589 3294790 3378632 3450833 3485034 3468100 3400304 
1764.159 3291986 3158929 3020508 2898541 2812191 2777543 2798985 2866387 
1768.016 2955751 3040995 3106665 3154457 3201686 3274191 3393592 3562064 
1771.874 3751389 3908933 3988913 3976808 3893219 3772979 3649432 3542488 
1775.731 3458581 3394393 3343470 3302002 3273290 3266647 3293522 3359431 
1779.589 3457847 3566874 3656148 3701359 3693807 3644019 3574625 3511990 
1783.446 3474780 3470806 3493852 3527856 3552543 3552677 3523113 3467432 
1787.303 3395328 3317794 3246917 3193775 3168641 3181058 3237036 3335090 
1791.161 3460585 3587320 3683047 3726423 3717801 3675562 3623837 3580571 
1795.018 3553612 3539414 3527455 3504775 3463458 3402742 3331016 3260838 
1798.876 3206225 3176786 3174149 3192406 3221714 3252826 3280635 3304406 
1802.733 3325674 3344572 3359431 3366443 3361902 3344873 3317694 3286177 
1806.590 3256898 3235801 3224918 3222448 3223016 3220579 3210131 3190003 
1810.448 3161332 3127824 3093150 3059113 3025880 2991714 2955050 2915453 
1814.305 2874192 2834236 2799319 2773341 2759069 2757602 2768473 2790048 
1818.163 2819428 2853914 2889602 2922291 2947444 2960888 2960554 2947744 
1822.020 2927962 2909449 2902844 2917355 2956551 3015036 3078968 3130694 
1825.878 3156125 3150085 3117879 3071660 3025412 2991881 2978803 2986510 
1829.735 3006995 3027948 3039626 3038292 3026513 3008964 2989613 2970129 
1833.592 2950947 2932733 2917955 2911283 2918422 2943341 2985175 3037091 
1837.450 3087611 3123018 3132663 3113140 3068189 3007062 2940939 2881730 
1841.307 2839539 2822630 2838171 2890303 2976334 3083239 3189936 3270586 
1845.165 3306977 3295191 3244981 3173314 3098823 3037791 2998754 2982139 
1849.022 2980738 2983607 2981472 2970263 2953015 2937403 2932332 2942607 
1852.880 2967994 3002057 3034822 3056310 3060181 3044164 3010765 2965492 
1856.737 2917088 2875360 2850478 2851178 2881931 2941372 3019907 3102060 
1860.594 3167674 3198315 3183595 3124320 3031385 2921524 2812925 2719991 
1864.452 2650111 2605275 2584142 2585742 2612842 2672414 2771941 2913318 
1868.309 3086343 3265612 3418371 3518136 3550171 3513927 3418404 3277730 
1872.167 3107667 2925794 2750866 2600008 2487791 2423979 2410418 2441972 
1876.024 2506653 2590542 2679415 2762671 2833969 2890069 2929163 2948979 
1879.881 2947577 2924960 2883965 2831601 2776843 2728226 2690617 2663579 
1883.739 2641377 2615942 2581776 2538513 2491057 2448570 2419281 2406920 
1887.596 2408986 2416916 2419748 2408419 2381232 2343853 2307510 2282461 
1891.454 2274201 2282328 2302147 2327630 2353514 2377401 2399324 2420947 
1895.311 2444571 2471496 2502354 2536514 2573243 2609708 2643377 2669747 
1899.169 2685149 2688116 2681982 2673681 2674381 2694551 2740730 2811191 
1903.026 2896073 2979504 3044298 3077433 3074162 3038158 2980138 2914486 
1906.883 2855648 2814059 2794550 2795551 2810324 2827399 2834436 2820962 
1910.741 2781111 2715923 2633309 2546979 2471395 2420181 2401722 2417315 
1914.598 2460966 2523116 2594042 2665846 2733561 2794250 2844008 2879129 
1918.456 2896073 2895206 2880763 2860417 2841340 2826932 2813492 2790282 
1922.313 2743664 2664179 2554378 2431810 2323666 2255382 2240128 2273135 
1926.171 2332460 2384331 2396658 2353448 2260778 2146916 2049896 2006453 
1930.028 2034050 2125573 2251885 2377068 2469296 2513351 2513451 2489857 
1933.885 2467797 2466497 2494989 2549945 2622442 2702020 2781511 2857449 
1937.743 2925827 2981205 3013968 3010298 2959353 2854314 2699819 2512351 
1941.600 2322000 2163299 2064244 2039143 2085718 2187775 2322467 2467997 
1945.458 2604842 2716523 2792749 2824931 2811058 2755268 2672214 2585142 
1949.315 2523216 2517217 2587342 2736362 2942473 3161933 3334455 3399269 
1953.172 3316926 3079468 2719890 2297217 1891161 1570374 1376745 1314360 
1957.030 1352847 1441101 1529307 1590326 1624548 1657308 1722804 1848600 
1960.887 2040408 2279497 2527015 2739563 2878762 2918422 2849044 2677281 
1964.745 2425745 2126105 1821747 1561595 1387781 1329847 1391603 1547728 
1968.602 1753576 1966311 2159137 2328063 2488324 2658679 2843307 3020541 
1972.460 3140906 3141440 2974132 2617842 2096938 1475477 847566 302586 
1976.317 -97171 -325784 -396036 -336577 -181271 42612 309681 593803 867088 
1980.657 1101910 1280794 1401210 1478203 1540246 1616333 1725731 1868965 
1984.514 2027958 2176219 2290689 2359477 2384431 2378601 2357345 2329928 
1988.371 2297017 2255482 2204060 2148381 2101999 2076096 2070137 2065177 
1992.229 2026293 1915022 1708832 1414606 1071550 737892 473412 324669 308919 
1996.568 415268 611156 860747 1131110 1403902 1674172 1943312 2209088 
2000.426 2461832 2682149 2848610 2944875 2966559 2921524 2828533 2708088 
2004.283 2576043 2442872 2314672 2194768 2088149 2002026 1942779 1916820 
2008.141 1927503 1977162 2068872 2204926 2387363 2612775 2873225 3148082 
2011.998 3410456 3628114 3767799 3802928 3720441 3521343 3220612 2846843 
2015.856 2441539 2052825 1736543 1544370 1508027 1633095 1894788 2245523 
2019.713 2622576 2967260 3232396 3394694 3457312 3445656 3395863 3338996 
2023.570 3290918 3249020 3196445 3110103 2972665 2783245 2555444 2313339 
2027.428 2084087 1889098 1734647 1611611 1500479 1380734 1242679 1096928 
2031.285 972445 916991 976463 1181708 1533430 2000994 2525082 3032619 
2035.143 3456744 3743301 3861794 3809546 3609571 3302336 2934967 2559511 
2039.000 2220745 1953563 1777030 1690038 1670114 1678230 1674837 1628871 
2042.858 1531601 1399681 1272519 1198520 1216163 1344604 1573100 1864239 
2046.715 2160668 2404121 2546512 2562677 2460899 2274967 2056621 1856519 
2050.572 1717448 1662065 1691169 1785647 1912327 2035714 2124940 2165563 
2054.430 2162533 2138126 2122276 2144685 2223975 2359877 2537847 2731927 
2058.287 2915220 3062850 3159597 3199316 3182727 3114074 2998020 2839072 
2062.145 2642977 2418182 2178684 1942180 1730821 1565386 1462411 1431693 
2066.002 1474114 1580949 1734547 1912427 2090446 2247389 2371238 2459732 
2069.859 2521383 2570776 2623576 2690450 2771974 2858249 2933266 2978736 
2073.717 2979604 2929297 2829700 2691717 2530215 2365441 2218447 2109624 
2077.574 2057020 2071602 2152976 2287158 2448703 2607675 2736462 2820362 
2081.432 2861618 2878295 2895773 2939671 3022810 3142442 3279667 3408486 
2085.289 3503706 3547666 3535272 3471474 3366944 3231895 3074997 2902344 
2089.146 2719991 2536647 2363142 2210687 2088182 2001028 1951566 1941947 
2093.004 1975664 2057220 2189806 2368606 2576009 2781278 2947744 3038859 
2096.861 3032586 2928963 2751433 2538180 2332027 2166796 2058818 2005755 
2100.719 1992007 1998498 2009616 2018470 2027591 2043904 2074299 2121544 
2104.576 2183879 2254649 2326730 2392427 2445737 2481126 2494156 2481792 
2108.434 2444471 2388062 2323266 2265307 2229371 2226340 2260811 2330528 
2112.291 2427078 2539213 2657678 2774175 2883798 2982206 3063317 3118446 
2116.148 3137135 3108902 3027014 2891370 2710221 2498721 2279030 2075963 
2120.006 1911362 1802383 1755173 1764754 1814527 1881544 1941814 1974698 
2123.863 1969539 1926571 1855821 1771940 1689772 1620025 1566317 1527145 
2127.721 1498385 1477970 1466234 1468495 1491535 1542208 1623683 1733715 
2131.578 1863175 1998032 2118947 2205125 2237164 2202095 2097271 1935124 
2135.436 1745092 1569941 1454831 1440070 1544902 1762724 2057753 2376702 
2139.293 2653511 2830167 2871824 2771074 2551678 2259146 1954162 1697057 
2143.150 1537254 1504735 1603064 1806342 2065043 2318469 2502054 2563710 
2147.008 2479826 2258080 1940017 1585438 1264012 1031992 923432 945215 
2150.865 1081249 1298706 1560797 1838218 2111322 2368572 2604275 2810257 
2154.723 2974233 3082739 3120582 3075931 2943808 2723958 2420581 2042439 
2158.580 1607320 1138518 672014 249836 -84947 -292574 -349258 -256779 -44099 
2162.920 236309 520416 749840 895076 956572 967464 976762 1034018 1169349 
2167.259 1384889 1658173 1953330 2239595 2497588 2727093 2938804 3145145 
2171.117 3345741 3523280 3645990 3679471 3598479 3401974 3112072 2770974 
2174.974 2420381 2090712 1792867 1523787 1276806 1058862 895375 829341 
2178.832 906067 1153402 1567048 2104230 2688683 3224551 3627680 3845346 
2182.689 3865605 3718069 3458915 3154223 2857549 2608209 2420614 2289389 
2186.546 2194235 2110456 2017139 1903840 1774834 1648960 1555044 1519498 
2190.404 1560298 1676201 1846670 2034050 2195035 2295918 2319002 2271703 
2194.261 2180449 2083021 2012379 1988212 2012312 2070304 2139890 2199564 
2198.119 2236464 2247255 2234932 2204393 2156872 2090313 2000761 1888399 
2201.976 1762591 1643206 1559832 1540579 1607653 1764022 1994503 2261544 
2205.833 2518584 2720391 2831901 2837371 2744398 2578109 2372271 2159570 
2209.691 1963648 1791702 1639381 1497587 1359893 1231015 1128220 1076532 
2213.548 1103206 1225034 1440868 1727195 2044802 2341921 2570210 2699019 
2217.406 2719624 2649544 2524482 2393726 2302447 2281928 2343953 2476561 
2221.263 2649411 2819929 2948445 3002724 2967293 2845042 2654945 2426378 
2225.121 2190539 1979026 1817255 1724234 1713323 1790704 1953929 2190939 
2228.978 2480293 2791415 3087811 3338328 3516532 3610907 3624439 3572219 
2232.835 3473444 3347611 3210031 3069624 2933033 2806889 2698085 2615475 
2236.693 2565110 2547412 2554111 2571510 2582176 2572610 2537780 2484158 
2240.550 2428277 2389995 2387263 2430110 2516584 2633609 2760803 2876794 
2244.408 2962723 3008396 3013234 2987244 2946910 2912318 2902044 2926161 
2248.265 2984475 3063818 3143743 3199383 3211833 3174349 3095353 2996852 
2252.123 2906947 2852713 2850478 2900810 2989946 3094752 3189402 3252291 
2255.980 3271320 3242477 3168608 3056444 2916321 2760203 2604275 2468929 
2259.837 2375269 2341854 2379234 2484325 2641043 2821463 2996218 3138704 
2263.695 3234265 3280768 3286945 3265812 3229525 3184996 3134132 3074897 
2267.552 3007429 2936168 2871657 2827966 2818395 2851646 2928129 3040661 
2271.410 3174649 3313053 3438977 3537410 3598245 3615718 3590427 3527656 
2275.267 3438609 3339063 3244981 3172246 3130894 3123852 3146947 3191105 
2279.125 3246015 3303237 3358563 3410489 3458114 3498528 3524315 3525485 
2282.982 3492984 3422712 3319263 3197413 3079101 2986743 2937703 2939671 
2286.839 2988445 3071126 3171278 3274158 3370484 3457012 3534237 3603022 
2290.697 3661394 3703465 3721210 3708511 3663933 3592498 3504708 3414363 
2294.554 3334088 3272823 3234966 3221246 3231127 3264276 3320432 3399102 
2298.412 3496391 3603691 3707575 3791128 3839697 3843007 3799084 3714627 
2302.269 3604058 3485068 3374825 3288413 3235901 3222081 3247217 3306843 
2306.126 3392356 3490612 3587287 3666874 3717467 3735012 3723449 3694943 
2309.984 3666974 3656682 3675562 3726056 3800554 3885329 3964369 4025163 
2313.841 4062320 4078073 4080013 4077170 4077671 4085364 4100650 4121154 
2317.699 4144068 4166950 4189498 4211646 4234531 4258957 4285726 4316044 
2321.556 4351418 4392920 4440049 4490097 4536533 4570151 4582574 4567070 
2325.414 4521635 4449690 4359350 4261801 4167886 4086769 4024127 3982727 
2329.271 3963466 3968482 4000350 4062286 4155475 4275720 4412367 4550228 
2333.128 4670582 4756164 4795661 4785175 4728863 4638063 4529235 4419162 
2336.986 4324310 4258957 4232457 4250391 4311694 4409321 4528029 4648077 
2340.843 4747789 4808660 4820755 4786079 4718747 4640106 4573098 4535830 
2344.701 4533755 4560072 4597509 4627212 4632436 4605311 4545473 4458226 
2348.558 4351652 4234096 4114966 4002690 3907194 3838126 3803797 3808911 
2352.416 3852433 3926519 4017137 4108109 4185684 4240955 4274449 4293255 
2356.273 4310823 4339236 4386661 4452770 4529435 4602565 4658057 4687296 
2360.130 4689942 4674166 4654105 4644493 4654975 4685688 4727524 4765343 
2363.988 4782763 4767286 4717139 4639804 4551433 4469675 4411496 4385088 
2367.845 4390376 4417990 4454611 4485577 4498533 4487485 4451263 4394393 
2371.703 4324310 4251930 4188394 4143800 4125670 4136006 4170763 4217969 
2375.560 4261934 4284688 4271438 4215694 4120151 3997474 3865404 3743902 
2379.417 3648596 3586986 3558790 3556952 3571518 3592231 3612678 3629685 
2383.275 3643250 3654444 3663766 3670316 3672354 3667375 3654109 3632792 
2387.132 3605528 3575226 3544893 3517368 3494754 3478955 3471206 3471774 
2390.990 3479490 3490545 3499063 3497927 3480826 3445422 3394727 3337193 
2394.847 3285075 3251123 3243746 3265278 3310349 3368881 3427788 3476417 
2398.705 3509017 3525652 3531097 3532266 3536174 3547298 3567375 3595372 
2402.562 3629250 3665537 3700958 3731670 3753661 3763688 3759209 3740226 
2406.419 3710048 3674559 3642381 3621365 3618024 3634763 3669981 3717935 
2410.277 3770606 3819875 3858585 3882019 3889608 3883056 3866440 3844110 
2414.134 3820142 3796243 3771542 3743367 3707709 3661628 3604192 3537510 
2417.992 3467265 3400371 3344405 3305207 3285943 3286945 3306643 3342202 
2421.849 3390486 3447760 3510152 3572487 3628816 3673423 3702228 3714025 
2425.707 3712655 3705503 3701293 3708143 3730200 3765660 3808075 3847218 
2429.564 3873962 3882253 3871388 3845881 3813757 3783040 3759276 3744069 
2433.421 3735012 3727326 3715830 3697617 3671920 3640778 3607533 3575560 
2437.279 3547532 3525384 3511255 3507814 3518570 3547298 3595806 3663065 
2441.136 3742900 3826259 3900641 3955040 3981690 3978580 3949289 3901577 
2444.994 3845079 3788455 3737920 3697750 3669915 3656616 3659623 3680173 
2448.851 3717099 3765994 3818872 3864869 3893955 3899872 3882053 3846316 
2452.708 3802694 3762150 3732740 3717233 3713590 3716097 3718403 3716632 
2456.566 3709280 3697650 3683983 3669948 3656014 3641980 3628281 3616654 
2460.423 3610573 3614248 3630219 3658721 3696046 3736717 3774751 3805668 
2464.281 3828165 3843140 3853236 3859855 3862797 3859688 3847820 3825189 
2468.138 3792967 3754129 3714727 3680240 3655078 3640510 3636567 3640510 
2471.996 3650200 3662831 3676330 3688193 3696213 3697683 3691301 3677600 
2475.853 3659756 3642883 3632992 3634696 3649833 3676765 3710516 3744671 
2479.710 3772979 3791262 3797981 3794638 3784678 3772478 3762551 3758307 
2483.568 3761081 3770640 3784310 3797713 3805535 3803095 3787619 3758675 
2487.425 3718336 3670717 3619661 3568779 3520374 3475849 3437474 3408653 
2491.283 3393492 3396798 3420608 3463725 3519973 3580004 3634095 3674626 
2495.140 3699020 3710015 3714259 3719138 3729364 3745440 3763888 3778594 
2498.998 3783875 3777491 3761148 3740493 3722614 3713657 3717233 3732472 
2502.855 3754497 3776088 3788856 3784978 3760078 3713089 3648630 3575226 
2506.712 3505543 3453071 3428323 3437140 3478588 3544693 3622768 3699689 
2510.570 3764924 3813122 3844711 3864167 3877205 3888171 3898000 3904787 
2514.427 3905556 3897699 3881451 3859888 3838527 3822615 3816331 3821011 
2518.285 3834950 3855108 3877807 3900574 3922540 3944507 3968181 3995033 
2522.142 4025732 4058942 4091786 4119883 4137813 4140054 4122225 4081652 
2526.000 4018575 3936282 3840967 3741496 3647427 3568611 3513159 3486136 
2529.857 3489811 3522879 3580705 3656616 3742298 3829167 3908732 3974033 
2533.714 4019980 4044527 4048640 4036734 4016435 3996370 3985837 3991756 
2537.572 4017171 4060146 4114330 4170328 4218337 4251528 4267154 4267522 
2541.429 4258689 4247881 4240186 4237274 4235635 4229947 4213653 4182940 
2545.287 4138314 4085397 4033089 3990886 3967111 3966141 3987643 4026702 
2549.144 4075731 4125402 4166749 4193245 4201241 4191538 4168054 4138682 
2553.001 4112323 4097071 4099078 4120218 4158218 4207096 4259258 4306406 
2556.859 4341679 4360822 4361592 4344423 4311827 4268493 4220846 4175848 
2560.716 4140756 4120820 4118378 4131591 4155709 4183911 4209371 4227739 
2564.574 4237375 4239315 4235802 4229010 4220345 4210274 4199903 4191103 
2568.431 4187490 4193144 4210642 4239349 4275085 4310288 4337730 4352656 
2572.289 4356070 4354397 4357643 4374946 4411697 4465993 4529637 4590008 
2576.146 4635785 4659698 4661573 4647842 4629825 4619108 4623830 4646904 
2580.003 4685688 4732849 4778609 4814154 4832749 4831811 4812714 4781088 
2583.861 4745277 4714862 4698617 4703105 4729667 4775259 4832213 4891052 
2587.718 4941620 4977380 4995714 4999133 4993434 4986161 4983849 4990016 
2591.576 5004462 5023701 5042071 5053669 5053602 5039825 5013445 4978117 
2595.433 4940212 4907002 4885221 4879994 4893598 4924730 4968666 5018707 
2599.291 5067648 5108816 5138722 5156660 5164808 5166619 5165479 5163735 
2603.148 5161656 5158773 5154347 5149384 5147272 5152670 5170207 5202498 
2607.005 5248173 5301668 5353894 5395693 5420150 5425418 5414782 5396767 
2610.863 5381268 5376538 5387474 5414313 5453098 5497423 5541451 5580013 
2614.720 5608844 5625224 5626063 5608273 5570112 5511819 5437161 5353994 
2618.578 5273091 5205449 5160215 5142578 5152235 5185229 5234691 5293450 
2622.435 5355236 5415152 5469539 5515410 5550009 5571354 5578939 5574542 
2626.292 5561755 5545982 5531753 5522222 5518195 5517826 5518900 5519504 
2630.150 5519336 5520745 5526450 5539706 5561621 5591022 5624485 5657415 
2634.007 5686016 5707334 5720998 5727679 5729291 5727512 5722945 5715291 
2637.865 5703876 5687560 5665505 5638583 5608542 5578939 5554002 5538968 
2641.722 5537894 5553499 5585651 5631803 5686721 5744165 5797754 5843223 
2645.580 5877814 5901090 5913819 5917850 5914323 5904751 5890678 5874624 
2649.437 5859846 5850376 5849570 5859746 5880400 5908949 5940489 5969916 
2653.294 5992625 6005424 6007541 5999882 5984529 5964373 5942774 5923090 
2657.152 5909017 5904314 5911468 5931756 5963600 6002939 6043456 6077829 
2661.009 6099838 6105450 6094327 6069227 6036401 6002905 5975391 5959099 
2664.867 5956176 5966489 5987384 6014999 6044935 6073158 6096713 6113279 
2668.724 6121983 6122823 6117043 6106525 6094428 6084616 6081054 6087170 
2672.582 6104777 6133408 6169939 6208825 6243950 6269228 6280759 6277263 
2676.439 6260320 6233395 6200523 6165133 6129174 6093117 6056728 6020207 
2680.296 5984764 5953086 5928330 5913685 5911031 5920101 5938608 5962861 
2684.154 5988191 6010464 6026792 6035897 6038517 6036367 6032436 6029782 
2688.011 6030588 6035628 6044095 6053536 6059987 6060054 6051217 6032638 
2691.869 6006197 5975290 5944319 5917480 5897731 5886211 5882684 5885304 
2695.726 5891887 5900351 5908513 5914827 5918421 5919127 5917615 5915667 
2699.583 5915701 5920268 5931118 5948283 5970285 5993330 6013185 6026153 
2703.441 6029883 6024675 6012950 5999008 5987284 5981371 5983218 5992491 
2707.298 6006903 6023432 6038887 6051184 6059718 6065665 6071377 6079542 
2711.156 6092109 6109616 6131291 6154815 6177602 6197666 6214976 6230908 
2715.013 6248320 6270540 6299955 6337306 6381016 6428496 6476015 6520075 
2718.871 6558690 6590177 6614129 6630446 6639665 6642692 6641280 6637949 
2722.728 6635055 6634820 6637915 6642861 6646999 6647201 6641750 6631119 
2726.585 6619041 6610294 6610361 6621766 6643837 6671729 6698378 6716280 
2730.443 6719645 6706522 6678122 6638723 6593069 6545672 6499591 6456374 
2734.300 6416659 6381083 6350116 6324564 6304863 6290273 6279145 6268724 
2738.158 6255883 6237967 6213329 6182072 6145809 6108138 6073561 6046883 
2742.015 6032604 6033478 6049336 6077291 6111128 6143624 6167754 6178475 
2745.873 6174442 6158277 6135694 6113346 6097553 6092210 6098225 6113380 
2749.730 6133912 6154984 6172191 6182206 6183080 6174375 6157403 6134988 
2753.587 6111028 6089858 6075880 6072184 6079811 6098090 6124738 6156664 
2757.445 6190844 6225161 6257934 6288423 6315957 6340063 6360068 6375804 
2761.302 6387606 6396113 6401998 6405730 6406773 6403813 6395642 6381285 
2765.160 6361749 6339458 6318075 6302005 6294307 6296559 6308662 6328834 
2769.017 6355293 6386463 6421703 6460747 6503998 6550953 6600470 6650465 
2772.875 6698715 6742629 6780254 6810444 6832861 6847873 6857870 6866050 
2776.732 6876923 6895169 6925131 6968731 7024998 7090163 7158166 7222610 
2780.589 7278606 7324129 7359951 7389136 7415897 7443300 7473266 7505898 
2784.447 7540791 7577508 7616958 7660392 7709598 7765387 7827121 7892270 
2788.304 7957195 8018685 8074683 8125522 8173532 8223065 8278920 8344814 
2792.162 8422676 8512110 8609806 8710434 8808074 8896537 8971556 9031465 
2796.019 9077680 9114527 9148027 9185150 9231449 9290480 9363501 9449301 
2799.876 9545212 9647851 9753971 9860863 9966289 10069129 10168806 10265859 
2803.734 10361611 10458061 10557081 10660401 10768569 10881078 10996778 
2807.109 11114446 11233607 11355182 11481044 11613204 11753166 11900938 
2810.484 12054790 12211899 12369168 12524618 12678043 12831351 12987786 
2813.860 13152371 13329046 13521755 13732196 13960462 14203877 14458152 
2817.235 14717784 14976680 15230961 15479382 15724991 15973797 16234098 
2820.610 16513793 16817812 17147274 17498892 17867124 18246484 18633474 
2823.985 19028806 19436626 19863246 20315284 20798622 21316290 21871022 
2827.361 22465230 23102496 23787946 24528398 25329680 26196844 27132326 
2830.736 28136958 29210608 30353718 31568964 32861448 34238312 35707784 
2834.111 37278304 38956436 40747728 42656052 44683364 46830440 49096400 
2837.486 51478452 53971296 56567480 59257088 62027240 64864264 67752784 
2840.862 70677016 73623160 76578232 79532704 82480480 85416984 88338680 
2844.237 91241488 94117608 96957024 99744912 102462592 105088856 107597400 
2847.612 109957024 112133552 114086712 115775224 117161200 118211440 
2850.505 118903248 119223944 119171888 118752696 117979912 116874672 
2853.398 115464192 113785488 111884320 109809760 107616840 105355928 
2856.291 103070880 100799080 98567728 96397400 94304728 92301864 90400448 
2859.667 88610800 86941448 85400008 83991568 82719248 81583696 80581840 
2863.042 79708064 78952744 78305112 77752080 77281888 76884488 76550528 
2866.417 76271128 76035920 75830144 75633944 75424384 75174584 74859808 
2869.792 74459544 73958840 73351280 72637200 71823232 70920688 69945168 
2873.167 68915136 67850736 66774564 65710076 64679600 63706012 62808872 
2876.543 62005148 61308440 60727456 60266764 59926468 59703516 59592904 
2879.918 59589864 59690860 59894708 60202092 60615056 61134172 61757752 
2883.293 62480776 63294776 64189272 65152852 66174232 67244304 68355040 
2886.668 69499872 70673936 71873160 73095064 74338192 75601960 76885560 
2890.044 78187352 79503136 80827064 82151320 83467344 84768184 86048296 
2893.419 87304808 88536568 89744496 90930288 92096976 93248816 94390488 
2896.794 95527384 96663608 97801776 98942024 100082768 101222960 102361880 
2900.169 103501392 104645504 105798520 106964304 108144240 109337952 
2903.063 110543856 111761856 112994024 114245304 115522800 116833696 
2905.956 118182776 119572416 121001888 122469160 123971152 125505704 
2908.849 127070416 128663016 130281208 131922784 133586184 135270768 
2911.742 136976592 138702304 140442928 142187376 143917616 145611200 
2914.635 147241040 148782016 150210576 151504416 152642512 153600752 
2917.528 154351472 154866928 155120176 155091280 154769168 154151840 
2920.421 153244080 152054064 150592224 148869440 146901008 144707824 
2923.314 142316736 139760448 137074432 134291200 131441696 128552568 
2926.207 125646872 122747536 119874392 117044736 114270944 111558576 
2929.100 108907280 106313464 103773584 101287888 98861632 96503984 94225728 
2932.475 92035624 89936704 87927392 86001320 84151360 82371528 80659192 
2935.851 79015416 77444144 75950544 74539712 73216384 71984320 70846656 
2939.226 69805968 68863880 68021448 67278312 66634744 66090928 65647900 
2942.601 65308528 65074792 64946948 64921124 64987504 65131956 65335408 
2945.976 65579580 65848596 66131092 66421492 66717728 67018188 67319320 
2949.352 67612488 67883936 68116048 68288648 68381296 68377496 68264176 
2952.727 68034192 67686408 67225120 66658468 65997340 65253308 64436676 
2956.102 63555896 62617504 61625492 60584808 59500440 58379124 57228680 
2959.477 56056656 54868648 53667500 52451640 51217068 49958524 48673368 
2962.853 47362448 46032332 44693244 43357680 42036072 40734084 39451336 
2966.228 38183508 36924488 35671164 34425572 33196628 31997796 30843244 
2969.603 29743978 28705292 27724526 26793090 25899272 25031790 24181940 
2972.978 23345638 22523122 21717800 20935040 20181108 19462338 18783814 
2976.354 18149876 17562368 17020758 16521193 16057441 15622726 15209960 
2979.729 14814420 14434413 14070139 13723338 13395403 13086632 12794359 
2983.104 12514796 12243117 11975115 11708334 11442022 11177779 10918588 
2986.479 10668551 10432132 10214463 10019351 9849237 9704500 9582776 9478560 
2990.337 9385237 9295862 9204509 9108470 9007785 8905399 8804963 8710298 
2994.194 8623596 8545428 8474773 8410144 8350184 8293611 8239409 8186328 
2998.052 8132612 8076573 8016964 7954461 7891698 7832924 7783366 7746936 
3001.909 7725281 7716479 7715871 7716715 7711925 7696478 7667845 7626468 
3005.766 7575215 7518979 7462244 7409359 7363759 7326724 7298587 7278033 
3009.624 7262501 7249058 7234570 7216917 7195154 7169249 7140685 7110640 
3013.481 7079991 7048570 7015906 6980819 6942941 6902811 6862045 6822326 
3017.339 6785504 6751850 6720722 6689831 6656924 6620151 6578907 6534707 
3021.196 6490410 6449312 6414776 6388749 6370794 6358756 6348905 6336465 
3025.053 6317201 6288457 6249328 6201733 6149237 6096847 6049000 6008986 
3028.911 5977373 5952985 5932361 5911368 5886815 5857361 5824752 5792650 
3032.768 5766459 5751484 5750645 5764276 5789225 5819950 5849469 5871400 
3036.626 5881475 5878486 5863642 5840805 5814275 5787479 5762060 5737819 
3040.483 5713142 5686184 5655904 5622807 5589444 5558970 5534605 5518430 
3044.341 5510611 5509302 5511953 5515309 5516752 5514839 5508765 5498396 
3048.198 5483632 5464103 5439543 5409850 5376001 5339772 5303579 5270207 
3052.055 5241901 5219734 5203873 5193109 5186436 5183049 5182714 5186134 
3055.913 5193880 5206287 5222250 5239755 5256121 5268731 5275842 5277351 
3059.770 5274701 5270274 5266451 5264573 5264036 5262527 5255920 5240325 
3063.628 5213162 5174096 5125244 5071402 5018372 4971347 4933744 4906868 
3067.485 4889343 4878050 4869338 4860224 4848899 4835195 4820185 4806013 
3071.343 4794120 4785644 4780485 4777302 4774220 4769430 4761725 4751507 
3075.200 4740219 4730538 4725714 4727524 4736601 4751240 4768224 4783266 
3079.057 4792143 4792646 4784371 4768358 4747421 4724308 4701196 4679626 
3082.915 4660033 4643488 4630595 4622490 4620247 4624332 4633910 4647038 
3086.772 4660099 4669612 4672123 4665492 4648646 4621720 4585855 4542795 
3090.630 4494918 4445907 4399982 4362027 4336759 4327021 4333680 4353828 
3094.487 4382410 4412367 4436568 4450460 4452201 4443129 4427764 4411262 
3098.344 4398710 4393824 4397974 4410392 4428434 4448184 4465759 4477308 
3102.202 4480656 4474831 4461139 4441957 4420902 4400986 4384753 4373306 
3106.059 4366144 4362395 4360521 4359116 4358647 4359383 4362864 4369993 
3109.917 4381339 4396334 4413371 4430242 4444334 4453138 4455046 4448954 
3113.774 4435329 4415948 4393422 4371532 4353660 4342080 4337964 4340340 
3117.632 4347335 4356472 4365475 4373440 4380168 4386728 4393790 4401522 
3121.489 4408953 4414476 4416316 4413304 4405371 4393053 4377724 4359952 
3125.346 4339905 4317115 4290980 4261968 4232557 4206594 4188628 4183309 
3129.204 4193312 4218070 4253201 4292184 4326184 4347067 4350046 4333781 
3133.061 4301855 4261600 4222285 4192642 4178491 4181836 4199903 4226735 
3136.919 4254607 4276758 4289105 4291180 4285860 4278330 4273679 4275085 
3140.776 4282580 4293757 4303930 4308113 4303461 4289607 4268961 4245940 
3144.634 4225966 4213653 4211445 4220010 4237074 4259324 4281811 4299579 
3148.491 4308581 4305670 4290109 4263373 4229813 4195286 4166849 4151093 
3152.348 4152364 4171800 4207564 4254105 4304733 4352656 4392551 4421003 
3156.206 4438041 4444870 4444334 4438844 4430342 4419731 4407580 4393723 
3160.063 4378427 4362496 4346732 4332308 4319892 4309418 4300650 4292753 
3163.921 4285023 4277293 4270099 4264578 4262069 4263942 4270768 4281844 
3167.778 4295430 4309251 4320528 4326485 4326184 4318956 4306172 4289607 
3171.635 4271906 4254607 4239483 4227204 4218337 4213453 4213218 4218973 
3175.493 4231218 4250223 4274215 4300081 4323708 4340976 4348607 4346498 
3179.350 4336023 4321331 4306841 4296467 4292284 4294359 4301052 4310020 
3183.208 4319089 4327087 4333346 4337964 4340809 4341244 4338533 4331907 
3187.065 4321164 4307142 4291247 4274616 4258153 4241256 4222854 4201676 
3190.923 4177588 4152364 4128914 4111220 4102422 4104195 4115535 4132929 
3194.780 4151996 4168823 4180431 4186052 4185784 4180565 4171265 4158252 
3198.637 4141860 4123763 4106972 4096335 4097405 4114297 4148417 4196457 
3202.495 4250926 4301286 4336525 4347770 4330300 4285157 4218572 4139485 
3206.352 4058741 3986037 3928893 3891146 3874163 3875968 3893119 3920768 
3210.210 3953769 3987141 4017104 4040848 4057604 4067203 4070915 4070046 
3214.067 4065330 4056366 4042320 4021217 3992257 3956076 3915720 3877038 
3217.925 3846918 3832243 3837925 3865003 3910002 3965439 4022990 4073892 
3221.782 4112491 4136508 4147045 4146610 4138281 4124432 4106102 4084729 
3225.639 4062286 4041952 4027905 4024294 4032387 4049845 4070380 4085799 
3229.497 4087404 4070347 4034427 3985369 3931835 3883758 3849291 3832844 
3233.354 3834449 3851163 3878944 3913145 3949657 3985636 4017338 4041584 
3237.212 4056065 4059008 4051115 4035263 4015733 3996705 3980353 3966877 
3241.069 3954806 3942367 3929027 3917559 3912811 3920066 3942869 3980620 
3244.927 4028808 4078708 4121188 4149621 4161363 4157616 4142797 4121790 
3248.784 4098476 4074260 4049410 4023926 3998644 3975604 3957782 3947049 
3252.641 3943371 3944072 3944140 3938489 3923944 3899973 3869683 3838861 
3256.499 3813925 3800187 3800588 3815329 3842438 3878041 3918361 3959420 
3260.356 3998276 4031852 4058708 4077103 4085699 4084628 4074460 4056567 
3264.214 4033491 4008676 3985602 3967479 3956478 3952766 3954672 3958919 
3268.071 3962196 3960791 3953402 3939860 3921738 3901310 3880214 3858952 
3271.928 3837591 3815596 3793903 3774617 3761215 3757404 3765192 3784043 
3275.786 3810916 3840466 3867711 3889040 3903918 3913547 3920935 3928626 
3279.643 3937921 3948219 3958016 3965673 3970522 3973297 3975236 3978079 
3283.501 3982861 3989883 3998511 4008074 4017405 4024963 4027839 4022990 
3287.358 4006436 3976106 3932236 3879479 3825256 3779530 3750653 3742833 
3291.216 3755132 3781335 3812588 3840199 3858885 3868112 3870853 3872458 
3295.073 3877372 3887970 3904319 3924212 3944140 3960825 3971124 3972260 
3298.930 3961828 3939057 3904887 3863799 3823719 3793602 3782071 3794103 
3302.788 3828231 3877506 3930197 3975471 4004931 4015967 4011285 3997340 
3306.645 3981490 3968181 3959888 3955575 3954371 3955408 3959353 3967579 
3310.503 3980653 3997808 4015866 4031317 4041517 4046333 4048005 4050413 
3314.360 4056935 4068540 4082922 4095198 4100248 4093960 4075430 4047236 
3318.218 4013659 3980052 3950359 3927121 3911540 3903684 3903483 3911072 
3322.075 3925416 3944207 3964202 3980620 3988980 3987040 3974534 3954338 
3325.932 3930632 3908565 3891748 3882253 3880181 3884360 3893319 3905857 
3329.790 3921203 3939024 3958618 3979182 3999046 4017003 4031417 4041283 
3333.647 4046300 4046300 4041350 4031785 4018374 4002323 3985135 3968616 
3337.505 3954438 3944207 3938422 3937352 3940295 3946079 3953034 3959253 
3341.362 3962798 3961928 3955775 3944140 3927856 3908832 3889241 3871422 
3345.219 3857013 3846951 3841669 3841603 3846750 3857715 3874363 3896429 
3349.077 3921637 3947049 3968415 3981924 3984466 3975805 3957782 3934075 
3352.934 3910103 3890912 3880415 3880415 3890244 3907160 3927555 3947651 
3356.792 3964937 3978547 3989916 4001453 4016435 4037203 4064694 4097773 
3360.649 4133899 4169358 4200304 4223925 4238345 4241858 4234096 4214857 
3364.507 4184948 4146778 4104463 4063825 4031384 4013057 4011619 4026401 
3368.364 4052788 4084026 4112290 4131256 4137679 4131624 4115468 4093091 
3372.221 4068775 4046166 4027772 4015231 4009078 4008676 4012422 4017973 
3376.079 4022354 4023224 4020013 4013158 4004630 3996872 3991454 3988579 
3379.936 3987308 3986405 3985536 3986205 3991087 4002523 4021685 4046400 
3383.794 4071517 4090214 4096937 4089177 4068741 4040781 4011519 3986338 
3387.651 3967345 3953535 3942735 3933440 3926017 3923577 3929595 3946981 
3391.509 3975069 4009981 4045330 4074728 4094361 4104362 4107172 4106904 
3395.366 4106737 4107674 4108845 4108811 4107139 4105667 4107808 4117107 
3399.223 4135538 4161129 4189364 4212917 4225263 4221750 4201375 4166682 
3403.081 4123094 4076969 4034360 4000149 3977510 3967713 3969418 3979851 
3406.938 3994030 4006101 4011185 4006403 3992993 3975170 3960490 3956277 
3410.796 3967479 3995066 4035230 4080046 4120050 4146510 4153401 4137679 
3414.653 4101218 4048440 3986572 3923711 3868480 3827797 3806504 3806170 
3418.510 3824554 3856111 3892784 3926920 3952900 3968649 3976006 3979550 
3422.368 3984800 3995534 4014295 4040681 4073423 4110183 4148918 4187022 
3426.225 4222152 4250859 4268861 4272107 4257652 4224795 4175514 4115200 
3430.083 4051450 3991923 3943605 3911306 3896295 3897331 3910404 3931033 
3433.940 3954840 3978346 4000049 4019846 4038474 4056600 4074260 4090314 
3437.798 4102790 4109413 4109179 4102322 4090615 4076333 4061617 4047303 
3441.655 4033391 4019612 4006469 3997441 3998143 4015064 4053624 4115100 
3445.512 4194449 4279937 4355367 4405773 4420568 4398777 4348539 4283986 
3449.370 4219642 4166950 4131591 4113461 4108009 4108677 4110049 4108544 
3453.227 4103292 4095131 4085030 4073457 4059443 4041182 4016535 3984332 
3457.085 3944808 3899973 3854138 3813055 3782806 3769236 3776121 3803930 
3460.942 3848890 3903884 3959721 4006938 4039276 4054460 4054393 4043557 
3464.800 4026769 4007171 3985335 3959587 3928525 3892684 3856010 3824788 
3468.657 3806872 3808209 3830672 3871054 3922105 3975370 4023123 4061049 
3472.514 4088909 4109213 4125770 4140522 4153535 4162701 4164942 4157951 
3476.372 4141392 4117240 4088709 4059443 4033223 4012622 4000015 3997574 
3480.229 4007272 4029778 4064460 4107474 4153100 4193646 4222620 4236371 
3484.087 4235568 4224493 4210107 4199702 4197761 4205925 4220478 4235300 
3487.944 4242293 4235300 4211044 4170830 4119047 4061617 4005031 3954137 
3491.802 3911975 3879913 3858049 3846717 3846048 3856913 3879412 3912142 
3495.659 3951596 3991221 4023725 4041818 4040848 4019779 3982392 3935814 
3499.516 3888505 3849993 3827128 3824287 3841937 3877540 3925449 3977979 
3503.374 4027337 4065932 4088074 4090950 4075230 4045029 4007372 3972160 
3507.231 3948921 3945611 3965907 4008175 4063858 4121254 4169258 4199936 
3511.089 4211311 4206125 4190501 4171031 4152431 4137411 4126841 4120485 
3514.946 4117341 4116605 4117307 4117542 4114698 4105533 4087237 4059477 
3518.803 4024361 3986305 3951328 3924914 3910270 3906793 3910805 3915920 
3522.661 3916188 3907228 3889374 3867243 3848522 3841235 3851765 3882421 
3526.518 3930966 3990318 4051183 4103460 4138983 4154405 4150022 4129784 
3530.376 4098710 4061350 4021585 3981423 3943237 3909234 3883357 3869717 
3534.233 3871956 3892049 3928057 3974401 4021384 4058975 4079310 4078641 
3538.091 4057738 4021384 3976273 3928893 3885062 3848422 3820978 3802961 
3541.948 3793067 3790527 3794170 3804966 3824955 3858016 3907060 3972996 
3545.805 4051149 4131390 4199601 4241390 4247747 4217936 4159389 4084996 
3549.663 4011419 3953368 3920701 3917090 3938255 3974936 4015465 4051082 
3553.520 4077605 4095198 4105734 4110450 4109313 4100483 4082622 4056668 
3557.378 4025765 3995400 3971023 3956879 3953569 3957782 3963299 3963098 
3561.235 3951228 3924145 3881518 3826059 3763888 3704634 3660492 3647494 
3565.093 3681309 3773581 3923878 4114197 4308882 4466729 4561311 4586525 
3568.950 4555418 4488356 4405974 4323373 4250089 4190769 4146610 4116103 
3572.807 4097071 4086067 4079812 4074528 4067771 4058507 4048206 4039979 
3576.665 4038273 4046801 4066768 4096001 4130487 4164039 4190970 4207096 
3580.522 4209438 4194918 4160660 4102757 4019077 3910638 3785380 3657250 
3584.380 3546830 3479557 3479490 3564135 3734344 3968315 4218705 4429706 
3588.237 4561043 4599484 4557929 4461373 4336826 4206427 4087204 3993294 
3592.094 3934577 3917692 3943571 4006469 4092355 4182640 4259726 4310556 
3595.952 4330535 4323607 4298910 4267489 4240554 4227036 4232423 4257886 
3599.809 4299379 4348004 4389975 4410392 4397874 4346364 4257585 4139719 
3603.667 4006469 3872525 3753394 3664167 3616621 3620129 3677233 3782739 
3607.524 3918562 4057203 4169325 4232189 4239951 4204084 4149520 4104563 
3611.382 4095164 4136441 4225029 4336358 4430610 4469608 4429673 4312162 
3615.239 4138883 3945210 3769804 3650401 3620964 3701994 3894021 4168422 
3619.096 4473191 4743501 4927109 5000775 4970073 4860827 4705952 4537137 
3622.954 4375749 4231587 4103058 3979751 3849859 3707074 3557988 3428290 
3626.811 3362069 3414163 3631221 4010114 4466930 4858314 5079381 5114583 
3630.669 5019813 4867629 4719953 4615692 4569012 4574437 4609798 4647507 
3634.526 4664253 4650890 4612310 4561646 4511289 4468604 4434292 4404032 
3638.384 4372737 4338566 4304532 4276055 4258220 4249420 4241256 4218906 
3642.241 4166247 4071216 3931835 3756368 3562799 3372588 3210865 3101726 
3646.098 3065386 3115409 3254829 3476884 3764390 4097238 4451029 4791574 
3649.956 5074822 5254545 5302003 5220070 5036674 4794053 4535194 4302926 
3653.813 4133665 4055631 4084762 4212750 4400384 4583813 4706287 4738544 
3657.671 4687932 4584114 4462813 4352656 4270099 4221549 4204720 4212583 
3661.528 4237274 4271772 4310221 4345963 4371666 4377858 4354798 4295698 
3665.385 4198196 4067403 3915686 3766429 3651369 3609337 3680106 3885797 
3669.243 4206259 4561746 4843102 4960388 4892224 4678822 4392317 4108477 
3673.100 3896295 3823518 3942468 4262236 4704713 5115555 5348627 5366842 
3676.958 5233786 5043881 4870075 4748593 4688468 4676712 4690277 4706153 
3680.815 4711378 4702267 4681300 4649651 4603603 4534357 4433488 4298308 
3684.673 4136876 3967345 3817835 3718603 3697917 3775352 3953268 4210307 
3688.530 4500475 4771976 4982810 5115354 5172487 5168664 5120450 5042808 
3692.387 4950166 4855734 4770904 4704411 4659530 4633441 4616596 4596504 
3696.245 4559737 4499102 4415747 4320829 4231286 4166113 4143299 4174878 
3700.102 4263675 4399614 4559771 4712182 4825311 4881434 4877983 4825981 
3703.960 4741659 4641546 4538409 4440384 4353058 4279636 4222252 4183744 
3707.817 4167552 4178692 4222988 4307009 4434928 4605445 4807588 5017836 
3711.675 5204041 5335814 5392841 5372780 5288318 5161153 5014484 4870075 
3715.532 4745109 4648847 4584516 4547817 4529502 4517784 4503990 4484975 
3719.389 4464587 4450427 4450560 4468303 4501011 4539145 4571021 4589271 
3723.247 4594562 4596471 4609430 4646904 4713723 4801256 4886796 4941553 
3727.104 4942123 4878888 4759715 4605110 4440853 4290143 4172703 4099312 
3730.962 4069276 4070313 4085230 4100550 4117943 4157583 4250959 4423647 
3734.819 4673965 4957539 5200419 5338329 5348393 5253773 5099093 4926539 
3738.677 4760050 4605579 4454912 4295330 4119549 3935179 3765259 3652105 
3742.534 3648596 3802092 4122425 4541723 4915916 5102446 5061547 4851948 
3746.391 4568577 4287834 4062955 3925549 3888873 3953836 4108778 4334718 
3750.249 4606249 4894637 5166317 5382408 5509537 5531619 5455077 5305860 
3754.106 5118774 4927377 4755896 4620682 4527594 4475199 4458260 4472554 
3757.964 4516545 4589606 4685688 4788559 4870913 4906097 4876877 4785979 
3761.821 4652598 4508142 4384519 4307443 4291314 4331505 4403530 4468604 
3765.678 4493010 4461875 4386627 4296233 4228408 4216932 4281142 4419463 
3769.536 4605110 4795024 4944502 5028260 5044384 5008987 4943530 4868098 
3773.393 4796096 4732046 4673597 4614554 4549793 4478279 4406911 4348975 
3777.251 4323105 4345126 4422040 4543130 4680765 4796432 4858348 4855633 
3781.108 4799447 4714627 4629490 4569113 4548420 4569716 4622122 4686626 
3784.966 4742329 4774522 4780351 4765544 4740520 4714895 4695971 4687296 
3788.823 4689741 4702837 4724241 4749799 4771741 4780518 4766448 4723738 
3792.680 4655311 4573365 4499102 4456218 4466729 4539245 4661707 4795962 
3796.538 4892392 4908912 4829365 4669410 4468872 4282480 4165913 4173339 
3800.395 4334049 4627849 4965348 5225972 5326321 5258200 5072676 4841728 
3804.253 4634613 4503522 4487586 4602197 4827422 5101105 5339872 5481048 
3808.110 5505343 5436557 5314447 5174599 5036238 4902277 4765343 4615324 
3811.968 4448016 4272977 4111487 3998243 3971057 4059109 4264444 4544435 
3815.825 4813384 4975771 4983145 4848463 4629892 4395530 4215426 4150926 
3819.682 4245171 4506401 4880094 5254579 5508832 5588068 5514336 5350976 
3823.540 5160885 4993904 4882574 4840422 4864479 4933409 5014182 5070632 
3827.397 5079414 5036640 4955729 4858549 4768827 4705918 4679425 4688166 
3831.255 4719417 4754456 4773550 4764103 4723336 4656818 4575207 4491302 
3835.112 4420166 4375817 4371901 4418860 4519894 4666296 4835095 4995043 
3838.969 5114180 5172319 5168664 5118673 5047903 4984150 4951707 4963438 
3842.827 5018942 5103083 5191600 5256524 5277284 5245859 5165848 5048741 
3846.684 4907270 4752579 4590108 4420434 4241189 4051483 3855944 3670984 
3850.542 3524315 3461287 3538746 3811819 4293957 4908443 5491215 5881173 
3854.399 6031495 5998773 5869787 5708543 5547861 5396196 5249112 5100837 
3858.257 4950601 4804639 4675037 4574269 4509916 4482330 4484840 4508109 
3862.114 4546712 4603503 4686458 4799380 4929421 5041568 5089438 5040696 
3865.971 4891588 4670616 4427463 4223891 4116572 4150123 4332442 4616362 
3869.829 4899060 5076766 5109989 5031947 4916251 4834123 4837239 4939140 
3873.686 5112470 5293584 5415252 5432799 5341784 5169603 4957639 4747387 
3877.544 4571892 4460101 4432752 4498533 4645397 4836066 5012406 5114851 
3881.401 5112470 5011031 4848463 4676142 4553108 4530507 4637828 4864881 
3885.259 5150391 5399249 5524705 5497826 5346279 5129938 4908175 4732146 
3889.116 4637426 4640441 4738075 4904221 5097350 5269335 5385863 5433604 
3892.973 5416929 5349231 5245020 5118036 4979927 4842968 4720187 4623528 
3896.831 4564425 4550295 4582172 4653368 4749397 4850775 4937129 4995010 
3900.688 5021322 5024573 5020987 5030573 5070263 5147339 5254579 5371136 
3904.546 5469774 5526450 5530108 5483766 5399786 5294121 5182345 5077370 
3908.403 4987904 4919703 4874934 4852920 4848597 4853321 4855566 4842801 
3912.260 4806482 4745009 4666664 4586726 4525685 4503455 4532047 4611506 
3916.118 4727289 4855633 4969772 5052764 5099999 5116695 5111364 5089338 
3919.975 5050887 4994306 4920306 4836435 4757604 4703976 4694329 4738376 
3923.833 4830638 4948524 5059636 5132218 5149720 5113409 5038015 4943161 
3927.690 4847324 4763902 4699555 4657554 4639938 4648947 4687865 4757202 
3931.548 4852216 4959617 5061178 5138689 5179629 5182580 5155621 5111967 
3935.405 5064999 5024472 4993535 4969403 4944938 4913470 4871382 4821223 
3939.262 4771272 4733251 4720489 4742496 4802897 4895642 5005434 5109252 
3943.120 5184759 5217421 5205248 5157331 5091182 5027724 4984050 4971951 
3946.977 4994272 5044183 5106335 5162260 5196395 5199782 5172185 5120014 
3950.835 5053535 4982944 4916754 4861363 4820620 4797403 4793517 4808727 
3954.692 4840723 4884450 4932504 4975972 5006473 5019411 5013512 4992731 
3958.550 4963873 4935286 4913972 4904120 4906131 4917323 4932773 4947418 
3962.407 4957975 4964108 4967325 4971045 4978453 4990753 5007411 5025511 
3966.264 5041668 5052328 5055345 5050685 5039858 5025511 5009825 4995244 
3970.122 4982743 4972956 4966119 4961829 4959282 4957572 4954187 4947284 
3973.979 4935286 4918295 4898725 4880195 4867261 4863374 4869673 4884919 
3977.837 4905829 4928785 4951305 4972621 4994138 5017299 5042908 5069525 
3981.694 5093696 5111498 5119813 5118204 5109084 5096713 5085918 5079314 
3985.552 5077001 5076699 5074956 5069693 5060608 5050116 5042305 5040596 
3989.409 5046462 5058429 5072609 5084745 5091349 5092087 5088768 5085248 
3993.266 5084845 5089539 5098758 5109822 5118874 5122260 5117768 5104525 
3997.124 5083404 5056317 5025411 4992965 4961594 4934415 4914107 4903550 
##END=
