##TITLE=mb_3 Sep 07 10:11:44 2026 (GMT+02:00)
##JCAMP-DX=5.01  $$ Nicolet v. 970
##DATATYPE=INFRARED SPECTRUM
##ORIGIN=Vojna akademija
##OWNER=Nicolet
##LONGDATE=2026/09/07
##TIME=10:12:10
##SPECTROMETER/DATA SYSTEM=Nicolet iS20
##DATA PROCESSING=
Ratio against background
%Transmittance->Absorbance
Truncated
ElementMultiply or ElementDivide
##COMMENTS=
Number of sample scans: 8
Collection length: 11,90 sec
Sample gain: 8,0
Background collected on: Mon Sep 07 10:04:03 2026 (GMT+02:00);
Number of background scans: 8
Background gain: 8,0
Sample spacing:  1,000
Number of scan points: 12415
Resolution points: 8286
Number of FFT points: 65536
Apodization: N-B strong;
Phase correction: Mertz;
Laser frequency: 15798,00 cm-1
Number of rejected sample scans: 0
Number of rejected background scans: 0
Bench serial number: BER2010005;
##RESOLUTION= 4,000
##XUNITS=1/CM
##YUNITS=ABSORBANCE
##FIRSTX=400.156891
##LASTX=4000.123047
##FIRSTY=-0.000660
##MAXX=4000.123047
##MINX=400.156891
##MAXY=0.268244
##MINY=-0.009962
##XFACTOR=1.000000
##YFACTOR=1.000000E-009
##NPOINTS=7468
##DELTAX=0.482117
##ZPD=6100
##XYDATA=(X++(Y..Y))
400.157 -660356 -4327574 -7188090 -9019213 -9615031 -8892075 -6961627 
403.532 -4148189 -960453 2015475 4183777 5153341 4840925 3489677 1536589 
407.389 -523301 -2272275 -3461104 -3974049 -3827560 -3134934 -2093457 
410.763 -944485 56928 655421 668430 22631 -1201301 -2790115 -4459694 
414.620 -5958419 -7159671 -8056530 -8730122 -9273959 -9720022 -9962278 
417.995 -9754300 -8829710 -7155010 -5061633 -3074072 -1556231 -597856 -63049 
421.852 269728 621276 1128486 1808205 2557478 3208195 3615284 3719706 
425.709 3562264 3231628 2800986 2285692 1654681 870142 -57583 -1033181 
429.566 -1891968 -2461299 -2618032 -2366138 -1837465 -1253769 -810397 
432.941 -601628 -575124 -573138 -392725 115586 972910 2054357 3141507 
436.798 4027538 4594629 4854997 4907505 4880295 4869237 4926539 5070531 
440.655 5306095 5644827 6097620 6647504 7210314 7634595 7745756 7402584 
444.512 6574870 5356343 3944474 2562710 1411315 597320 110018 -151197 
448.369 -313930 -457571 -587466 -645368 -554905 -273998 167425 667666 
452.225 1088756 1331575 1377177 1291295 1175395 1118885 1151807 1240386 
456.082 1308012 1282688 1144697 958631 841657 899459 1163667 1579818 2051560 
460.421 2493556 2864987 3165437 3417202 3628148 3765559 3756235 3513459 
464.278 2981405 2177918 1208886 260776 -464555 -796308 -675938 -176667 
468.135 518791 1204733 1736410 2064378 2245590 2403655 2674214 3133864 
471.992 3760713 4425622 4955528 5196429 5091081 4693190 4138783 3591563 
475.849 3195945 3052606 3186031 3541085 3993628 4400250 4636388 4641412 
479.706 4432317 4093659 3744805 3493518 3408853 3488174 3665437 3837424 
483.563 3915519 3861426 3706506 3531765 3437106 3489811 3694008 3989883 
487.420 4279870 4466462 4478045 4296668 3957749 3540082 3132429 2815793 
491.277 2644377 2637443 2782745 3041862 3364073 3688494 3960791 4141660 
495.134 4209772 4169157 4047872 3894623 3760914 3687859 3689296 3747779 
498.991 3820710 3854707 3805200 3647159 3386312 3059013 2724125 2439873 
502.848 2248121 2165397 2182347 2274800 2411818 2566910 2718890 2854881 
506.705 2970563 3068323 3151753 3225419 3289048 3338796 3368480 3375025 
510.562 3359398 3331283 3305107 3295658 3313754 3362870 3439311 3537978 
514.419 3656716 3798515 3968315 4167652 4386360 4597776 4766147 4853054 
518.276 4834492 4711010 4507874 4267723 4032554 3833312 3680006 3564001 
522.132 3464393 3358997 3228390 3058546 2841140 2571943 2253184 1897384 
525.989 1533929 1204666 954446 819050 808692 906332 1071052 1255605 1419593 
530.328 1545800 1647430 1766417 1955227 2253484 2674314 3192573 3755466 
534.185 4290812 4735194 5046898 5214604 5253706 5196395 5078912 4930125 
538.042 4773751 4629456 4515307 4451364 4454343 4533922 4687664 4899395 
541.899 5140935 5377276 5576422 5712269 5769011 5741613 5634723 5462392 
545.756 5246463 5017501 4806985 4639503 4527092 4462913 4423178 4373607 
549.613 4284354 4140188 3951529 3752692 3595037 3528892 3585249 3765392 
553.470 4035196 4332341 4578388 4708263 4684750 4511724 4230282 3910303 
557.327 3628682 3445489 3395662 3477285 3660325 3894222 4125737 4307711 
561.184 4404334 4395932 4276591 4055865 3756101 3414864 3081437 2805889 
565.041 2635243 2594675 2679782 2852579 3053841 3216606 3285876 3239005 
568.898 3089546 2883932 2681015 2539147 2497122 2568077 2742597 2995685 
572.755 3296126 3609504 3906057 4158620 4344055 4448117 4466227 4409120 
576.612 4299948 4170931 4053089 3968950 3930799 3939826 3990084 4069544 
580.469 4162367 4247981 4302256 4303762 4238044 4106002 3926252 3737653 
584.326 3587521 3516967 3548601 3674660 3860323 4053490 4205289 4281644 
588.182 4270199 4179127 4029812 3847954 3656014 3477285 3336292 3258534 
592.039 3266446 3367312 3543256 3748147 3922975 4006871 3962229 3789524 
595.896 3530729 3256965 3040094 2934267 2954683 3079869 3263575 3459717 
599.753 3637069 3786616 3917659 4043290 4167016 4277393 4351116 4365575 
603.610 4310690 4194315 4039477 3874096 3721912 3593901 3491815 3412861 
607.467 3355858 3324171 3320565 3340799 3368246 3374959 3332018 3219010 
611.324 3037057 2811058 2586042 2407520 2311174 2310042 2393326 2530681 
615.181 2683749 2818695 2911050 2952248 2947077 2912985 2874192 2857983 
619.038 2890836 2989412 3155825 3372087 3604326 3806170 3933373 3958885 
622.895 3879245 3718369 3517000 3323804 3175217 3088178 3056711 3058179 
626.752 3061115 3035856 2964991 2843574 2680949 2498088 2326930 2201928 
630.609 2153476 2201096 2344553 2563277 2818661 3068957 3278031 3428824 
634.466 3526654 3594570 3657451 3728228 3798315 3839764 3817167 3703197 
638.323 3493184 3209830 2898174 2606375 2373836 2217947 2131233 2088115 
642.180 2058285 2019436 1961751 1890529 1820683 1771142 1758499 1792301 
646.036 1875420 2002226 2158171 2322267 2470129 2579209 2636143 2643043 
649.893 2617309 2582842 2561344 2559977 2567610 2558078 2501387 2382998 
653.750 2211952 2025128 1873956 1811699 1870129 2048431 2311807 2606108 
657.607 2874459 3075230 3194643 3246616 3264744 3286110 3343470 3453505 
661.464 3615919 3814693 4023491 4211110 4346230 4406676 4381071 4270467 
665.321 4085230 3844711 3577297 3318128 3113841 3005494 3001190 3061149 
669.178 3130160 3174382 3190804 3192640 3193408 3197613 3198348 3179389 
673.035 3122751 3019907 2877428 2719157 2577843 2485458 2460232 2499621 
676.892 2582242 2679048 2764038 2826932 2875527 2930464 3012667 3130294 
680.749 3271053 3404412 3493251 3506177 3433566 3291953 3121182 2967460 
684.606 2869823 2842540 2870190 2913685 2925794 2872191 2744064 2567243 
688.463 2395159 2297184 2330395 2527949 2887101 3371819 3919698 4458260 
692.320 4926673 5283422 5517356 5644793 5704380 5743862 5807458 5929405 
696.177 6122285 6375938 6660155 6935702 7160288 7303709 7356244 7332351 
700.034 7268228 7209673 7205631 7291376 7484627 7781072 8158675 8580776 
703.890 9003726 9389369 9706262 9937066 10080829 10154391 10189633 10227660 
707.747 10314004 10483790 10756749 11132938 11594759 12114036 12660814 
711.122 13215456 13772654 14341321 14939607 15588516 16303789 17093370 
714.497 17959282 18898938 19909656 20987406 22126166 23313680 24529064 
717.872 25745570 26932002 28059828 29106430 30051440 30873730 31545982 
721.247 32032360 32296720 32311890 32069314 31585854 30903580 30084890 
724.621 29197780 28313858 27492266 26770676 26161932 25651780 25204656 
727.996 24771426 24307124 23780562 23184798 22539628 21887470 21279124 
731.371 20756636 20345040 20044060 19831684 19670302 19521424 19355100 
734.746 19155180 18921676 18666712 18407890 18160346 17934662 17732874 
738.121 17550916 17380896 17216044 17054702 16901928 16769113 16668737 
741.496 16610209 16591929 16599331 16605768 16582049 16502917 16358353 
744.870 16157780 15928905 15706543 15519901 15383182 15289921 15217509 
748.245 15135571 15020411 14860945 14661917 14436913 14200454 13959093 
751.620 13709078 13439179 13140555 12815039 12480218 12165077 11904207 
754.995 11725218 11639443 11638287 11694685 11775193 11845808 11885239 
758.370 11888304 11863514 11826978 11795756 11781354 11785917 11803620 
761.744 11823130 11833889 11828033 11802872 11760792 11708674 11654453 
765.119 11605820 11570360 11553448 11559777 11592377 11652037 11734648 
768.494 11830246 11923517 11993951 12020725 11988365 11890688 11735430 
771.869 11542288 11341476 11162616 11028112 10946655 10911249 10900716 
775.244 10886548 10843674 10753930 10613848 10432132 10227422 10020911 
778.619 9830154 9666247 9530885 9418353 9317697 9218520 9111617 8991345 
782.475 8856159 8706377 8544380 8373153 8197707 8024896 7864098 7727036 
786.332 7624444 7564088 7547736 7570056 7619285 7680155 7737424 7777665 
790.189 7789843 7765792 7699480 7587252 7430155 7237400 7026378 6824311 
794.046 6663856 6572246 6566662 6644779 6786245 6955937 7115793 7235446 
797.903 7298317 7305730 7272945 7222644 7175616 7146983 7145164 7173123 
801.760 7232010 7322545 7444716 7593861 7760158 7927228 8075223 8186868 
805.617 8253255 8277704 8275780 8271760 8292327 8357075 8477949 8655807 
809.474 8883652 9150227 9442766 9750108 10059601 10356419 10621250 10829474 
813.331 10956781 10983422 10901531 10719593 10463764 10173046 9890759 
816.706 9659098 9506161 9441479 9453805 9515611 9589144 9635757 9626813 
820.563 9545348 9390113 9171038 8906785 8618561 8325730 8047781 7801481 
824.420 7602256 7463727 7393215 7389710 7441277 7527811 7622016 7697288 
828.277 7734523 7724439 7670712 7586443 7490728 7399820 7324096 7264421 
832.133 7213784 7160693 7094271 7010686 6914829 6820609 6746466 6710761 
835.990 6723851 6785471 6883319 6998530 7112324 7211594 7293802 7365242 
839.847 7436390 7514933 7601481 7688654 7764780 7819496 7849590 7859981 
843.704 7861905 7865279 7873814 7882789 7882216 7862849 7825062 7780567 
847.561 7751793 7761913 7823949 7934585 8072455 8205304 8299521 8333668 
851.418 8302122 8215940 8095206 7962864 7837815 7732668 7657728 7622455 
855.275 7636280 7704944 7824894 7978928 8135245 8258049 8314719 8287971 
859.132 8182175 8021352 7840447 7672803 7542713 7461401 7429716 7444244 
862.989 7502021 7600234 7732533 7884915 8033334 8147332 8201252 8182074 
866.846 8097300 7972044 7843112 7741438 7682043 7659651 7653783 7638911 
870.703 7597637 7528013 7445356 7374038 7336564 7347785 7410505 7518338 
874.560 7661202 7831034 8022432 8230055 8446123 8655165 8834956 8962492 
878.417 9017934 8992089 8888590 8722535 8516333 8293814 8079712 7895746 
882.274 7761339 7692532 7698401 7779420 7924563 8113808 8320022 8515555 
886.131 8680111 8802393 8882638 8928092 8949266 8953528 8943786 8918690 
889.987 8874928 8810069 8724700 8622785 8512110 8402779 8306512 8236268 
893.844 8201995 8209018 8253085 8319719 8384335 8417238 8393117 8297124 
897.701 8132376 7917578 7685045 7467940 7290096 7161636 7077196 7020687 
901.558 6973580 6924660 6873759 6833466 6821888 6857096 6948530 7091476 
905.415 7266712 7445221 7596659 7694826 7727171 7696377 7619892 7523800 
909.272 7437334 7385766 7382801 7430896 7521608 7641271 7774798 7910120 
913.129 8041873 8169074 8293374 8416798 8537959 8652056 8750866 8824473 
916.986 8864376 8864883 8824575 8746674 8639448 8514880 8386834 8270072 
920.843 8175557 8109115 8070159 8052135 8045215 8039139 8027157 8006467 
924.700 7979165 7949670 7923281 7904351 7895611 7898581 7914575 7943730 
928.557 7985577 8037654 8096625 8159148 8225057 8298914 8390381 8510419 
932.414 8666961 8858864 9071489 9276669 9440870 9532443 9531698 9438939 
936.271 9275044 9075413 8877092 8711515 8594429 8525591 8492477 8479706 
940.128 8476091 8479131 8495586 8536540 8610144 8715808 8841381 8965028 
943.985 9062997 9115745 9115948 9071489 9004030 8941283 8908713 8922715 
947.841 8983260 9075786 9175336 9257578 9303919 9309403 9281679 9238658 
951.698 9200007 9180210 9185962 9215271 9260997 9316275 9378331 9448286 
955.555 9529530 9623629 9726591 9829002 9919403 9986699 10026811 10043188 
959.412 10046037 10047426 10056175 10074453 10097480 10116201 10121831 
962.787 10111385 10088629 10063534 10048376 10054073 10085407 10140383 
966.162 10210257 10283467 10347766 10393611 10415908 10413940 10390456 
969.537 10350141 10298803 10241365 10181594 10122034 10064178 10008975 
972.912 9958152 9913166 9876115 9847373 9825206 9804838 9778777 9737807 
976.768 9673735 9581421 9460849 9318950 9167315 9021418 8897383 8806721 
980.625 8754821 8737681 8742921 8750630 8739473 8692652 8601492 8468523 
984.482 8306411 8134198 7970255 7828504 7715467 7631829 7575923 7547938 
988.339 7551344 7590759 7667002 7772336 7886973 7983247 8033300 8017639 
992.196 7934754 7803235 7659347 7542443 7486919 7509269 7604010 7746902 
996.053 7903102 8039139 8130012 8166238 8153240 8108373 8052371 8005894 
999.910 7984126 7993001 8029452 8082581 8136933 8175557 8186226 8164348 
1003.767 8114685 8049907 7986421 7940220 7920514 7927937 7955575 7992529 
1007.624 8026314 8047781 8052033 8036911 8002181 7948218 7875839 7787077 
1011.481 7686900 7583644 7486042 7403022 7339900 7297677 7273956 7265027 
1015.338 7267150 7278977 7299868 7330363 7370163 7418695 7475930 7542915 
1019.195 7621915 7715366 7822667 7939579 8057130 8163436 8247885 8303304 
1023.052 8328095 8324852 8297832 8249743 8180858 8091528 7985037 7871790 
1026.909 7769637 7698670 7676614 7710273 7792879 7905734 8025605 8131092 
1030.766 8209119 8256429 8275543 8270815 8243224 8191021 8114314 8018415 
1034.624 7918050 7833902 7784513 7779082 7811298 7860757 7900166 7908332 
1038.481 7878403 7820103 7753649 7700593 7670543 7657290 7640597 7596760 
1042.339 7510550 7381655 7225339 7065443 6923549 6809603 6720857 6646158 
1046.196 6574870 6504805 6445545 6414070 6429202 6501038 6626846 6791529 
1050.054 6972233 7145366 7291747 7400124 7466288 7490964 7477682 7433997 
1053.911 7370836 7301990 7242656 7204048 7188922 7190168 7193806 7183296 
1057.768 7147691 7087603 7015131 6950348 6911900 6911126 6946981 7008195 
1061.626 7077600 7141358 7194008 7238815 7284300 7338181 7399888 7459311 
1065.483 7497942 7496223 7441682 7334205 7188686 7029982 6888773 6789644 
1069.341 6745388 6752826 6794827 6845719 6879414 6879717 6844406 6786783 
1073.198 6730144 6702887 6725298 6804554 6931730 7084067 7231909 7346707 
1077.056 7410538 7418189 7378352 7306203 7221094 7137417 7063523 7002100 
1080.913 6952537 6912978 6883723 6866050 6862280 6873085 6897694 6932908 
1084.770 6975095 7021799 7071572 7123877 7177334 7226518 7262467 7273114 
1088.628 7246901 7177771 7068810 6933514 6791764 6666413 6574467 6521791 
1092.485 6501038 6493941 6479681 6440804 6370693 6276086 6173098 6079677 
1096.343 6009826 5968203 5949996 5945058 5943378 5941094 5940825 5948451 
1100.200 5969378 6003476 6044430 6082096 6107029 6114523 6107096 6092075 
1104.057 6077392 6068185 6064321 6062877 6061197 6061197 6069529 6095302 
1107.915 6144128 6213766 6291415 6359261 6397895 6396853 6358387 6298509 
1111.772 6241597 6210909 6223144 6282036 6380242 6501442 6627957 6743302 
1115.630 6834476 6893418 6914796 6896482 6839828 6751749 6644341 6534168 
1119.487 6440232 6378527 6359395 6386429 6456273 6560439 6685928 6818623 
1123.345 6942301 7040219 7099828 7113301 7082416 7018937 6944052 6880660 
1127.202 6847907 6855918 6901767 6973715 7056922 7140786 7222071 7305091 
1131.059 7396686 7499729 7609169 7711419 7787954 7823679 7811568 7756144 
1134.917 7670915 7573765 7481592 7405820 7353885 7331307 7344078 7399214 
1138.774 7501852 7651793 7838052 8041401 8236808 8400279 8518022 8589461 
1142.632 8626435 8647256 8669260 8701915 8744781 8790526 8830459 8860826 
1146.489 8884904 8912230 8953764 9017020 9102245 9202241 9305646 9401456 
1150.347 9482997 9548565 9601136 9645344 9683900 9717274 9743704 9761698 
1154.204 9771219 9776032 9781319 9793044 9815039 9846728 9883132 9915810 
1158.061 9934218 9928488 9890996 9818970 9714393 9583826 9437619 9287806 
1161.919 9145116 9018542 8913853 8833908 8780213 8754213 8758203 8794921 
1165.776 8866101 8970575 9101466 9246645 9387541 9502503 9572614 9583589 
1169.634 9530987 9420790 9267868 9091992 8912399 8744713 8596220 8466698 
1173.491 8349610 8236640 8120762 7999616 7875502 7754559 7643868 7548074 
1177.349 7469626 7407370 7358300 7319175 7286693 7257919 7229753 7198354 
1181.206 7160525 7114985 7063860 7013616 6973546 6952435 6955432 6981459 
1185.063 7022708 7067362 7105218 7130815 7147354 7164533 7195760 7251988 
1188.921 7336058 7441615 7554311 7656278 7730577 7767647 7766500 7735535 
1192.778 7687777 7639990 7606438 7597131 7616992 7664034 7730982 7805766 
1196.636 7873713 7921054 7936036 7912820 7852862 7764105 7658942 7553400 
1200.493 7461502 7393181 7354323 7344618 7359614 7391496 7431570 7471547 
1204.350 7505628 7531183 7548377 7559099 7565842 7569550 7570157 7566179 
1208.208 7556738 7543219 7529834 7522248 7526092 7543724 7572079 7603943 
1212.065 7628693 7637899 7628322 7602965 7571202 7544027 7531149 7537049 
1215.923 7560784 7596659 7638574 7681571 7722785 7761542 7797029 7827087 
1219.780 7848207 7856135 7848577 7826648 7794633 7759686 7728284 7705787 
1223.638 7694320 7694387 7704944 7725281 7754323 7789775 7828369 7864671 
1227.495 7893351 7911065 7918287 7918793 7918657 7923179 7933471 7946396 
1231.352 7955170 7953854 7939883 7917206 7893756 7879617 7881609 7899559 
1235.210 7926891 7952807 7966846 7962088 7938566 7901820 7861094 7824827 
1239.067 7799626 7788899 7793115 7810995 7840447 7878133 7919771 7961278 
1242.925 7999819 8034853 8069181 8108406 8157460 8217629 8284425 8347651 
1246.782 8396023 8419907 8417643 8396428 8369978 8353460 8356940 8382578 
1250.640 8423656 8468725 8506939 8532958 8548874 8561512 8578545 8604094 
1254.497 8636339 8669294 8695255 8709690 8713205 8711887 8713475 8725477 
1258.354 8752320 8794008 8847806 8909491 8974567 9037623 9092737 9132765 
1262.212 9151072 9144033 9112835 9065839 9015396 8976122 8959515 8971556 
1266.069 9011540 9074330 9153103 9240824 9332389 9422619 9506060 9576238 
1269.927 9626509 9653001 9655948 9641313 9619529 9600255 9590634 9591650 
1273.784 9599272 9607165 9611162 9612416 9617565 9636096 9676683 9742789 
1277.641 9831103 9931200 10029624 10114064 10175589 10211750 10225522 
1281.017 10224403 10217177 10212835 10219213 10240550 10278276 10329477 
1284.392 10388521 10447642 10499880 10541193 10571917 10596871 10622473 
1287.767 10655579 10699726 10755187 10819317 10889539 10964290 11044086 
1291.142 11130728 11224086 11322260 11419537 11509351 11586490 11649688 
1294.518 11702207 11749762 11798446 11851187 11906931 11961560 12010301 
1297.893 12051451 12087257 12122178 12161772 12208083 12258658 12308081 
1301.268 12349327 12378918 12397704 12411307 12426684 12449529 12480354 
1304.643 12514899 12545422 12564009 12565954 12550469 12519980 12478308 
1308.019 12428252 12370260 12303479 12227338 12142963 12054245 11967077 
1311.394 11887725 11821258 11770597 11735430 11713542 11700743 11692608 
1314.769 11684133 11670484 11646727 11608848 11554843 11485535 11405488 
1318.144 11321478 11241972 11174515 11123589 11090651 11073894 11070189 
1321.520 11075219 11085655 11098163 11110230 11120122 11126309 11128383 
1324.895 11126513 11121482 11114514 11107579 11103364 11105369 11119069 
1328.270 11150819 11206746 11291245 11405081 11544839 11702241 11866612 
1331.645 12028185 12179628 12319193 12450347 12581370 12720826 12876539 
1335.021 13052111 13246438 13453738 13665582 13873595 14069660 14249207 
1338.396 14410265 14554146 14684126 14804580 14919512 15030460 15136292 
1341.771 15233947 15319782 15390838 15446936 15491572 15532298 15577904 
1345.146 15636945 15713962 15808757 15916463 16030349 16145192 16259380 
1348.522 16375661 16499165 16634721 16783096 16939962 17095332 17238418 
1351.897 17360272 17456980 17531666 17592594 17651254 17718034 17800496 
1355.272 17902996 18027526 18176756 18355624 18570842 18830732 19141954 
1358.647 19509364 19936264 20427516 20994120 21657194 22443388 23380008 
1362.023 24475742 25705000 27002656 28280084 29453790 30462640 31279228 
1365.398 31899188 32334094 32608460 32763254 32860878 32977760 33202886 
1368.773 33613252 34255700 35146316 36276392 37631512 39207460 41022988 
1372.148 43113508 45507476 48194144 51079300 53974108 56643612 58867836 
1375.524 60515216 61546800 61972204 61807716 61054688 59710588 57799624 
1378.899 55400472 52650364 49703996 46711032 43780396 40974228 38330600 
1382.274 35873008 33617760 31572278 29724534 28040670 26468240 24950752 
1385.649 23440576 21916324 20393378 18916208 17539046 16300933 15214524 
1389.025 14273278 13464914 12779412 12208866 11743771 11368107 11058156 
1392.400 10785790 10524932 10259549 9986190 9715342 9462542 9241061 9054910 
1396.257 8903471 8785420 8703875 8663548 8663953 8693666 8728249 8739946 
1400.115 8712867 8648033 8561547 8473725 8402441 8354609 8326743 8307999 
1403.972 8288444 8265040 8245994 8244036 8268350 8316544 8376126 8430514 
1407.829 8468623 8490518 8507040 8533971 8583682 8658377 8748162 8836512 
1411.687 8910911 8969899 9024666 9092466 9186639 9310216 9454618 9604895 
1415.544 9746686 9874895 9993785 10115488 10250151 10398159 10546590 
1418.920 10677278 10782937 10875982 10979039 11112575 11283695 11487984 
1422.295 11714495 11954646 12207503 12482946 12795417 13155036 13558775 
1425.670 13991839 14436400 14883987 15343020 15840681 16417123 17112910 
1429.045 17953272 18933996 20023448 21175266 22347378 23510280 24648002 
1432.421 25755414 26831190 27879884 28917554 29975494 31105564 32372396 
1435.796 33826996 35457048 37166364 38813804 40294432 41587408 42741488 
1439.171 43831488 44934080 46105688 47376784 48749024 50203156 51707596 
1442.546 53229772 54748280 56250548 57731876 59192452 60635704 62071996 
1445.922 63520572 65007588 66557304 68179000 69861184 71574168 73291768 
1449.297 75012928 76762216 78582768 80511840 82560536 84695416 86845208 
1452.672 88929000 90875760 92658344 94292088 95816104 97268880 98656000 
1456.047 99922880 100951648 101631840 101959520 102039304 102006072 
1458.940 101933080 101833584 101697160 101515040 101287680 101018664 
1461.833 100701888 100310040 99786232 99051232 98018184 96629080 94885400 
1465.209 92834488 90528584 87987568 85187176 82102928 78740192 75155952 
1468.584 71429392 67649504 63874096 60085264 56207816 52134296 47810276 
1471.959 43336116 39011600 35207896 32141130 29784326 27945852 26403516 
1475.334 25009538 23699160 22477130 21374900 20415116 19588456 18861182 
1478.710 18190094 17540840 16896624 16258279 15637839 15051384 14510394 
1482.085 14020139 13580551 13191546 12853193 12565237 12321715 12110049 
1485.460 11910269 11702036 11471756 11218884 10955285 10698197 10461151 
1488.835 10244622 10037491 9827478 9615126 9414153 9243431 9112192 9016851 
1492.693 8943584 8874352 8792419 8687920 8559215 8415075 8269498 8136595 
1496.550 8020947 7916464 7810320 7694488 7570157 7445154 7327027 7218433 
1500.408 7115928 7013616 6907591 6799438 6695754 6606425 6540223 6501071 
1504.265 6485466 6480690 6464412 6405125 6277498 6085624 5873180 5688131 
1508.122 5544740 5429612 5327193 5231237 5144824 5076029 5033054 5019143 
1511.980 5031009 5060608 5099160 5141103 5184122 5227314 5267524 5295798 
1515.837 5298179 5261118 5183083 5078912 4975134 4895274 4851378 4842767 
1519.695 4857108 4872052 4858783 4796432 4684114 4544168 4404066 4279334 
1523.552 4170261 4070046 3972528 3876604 3787352 3713657 3662496 3634296 
1527.410 3622067 3616153 3607199 3590795 3566440 3536675 3504708 3473778 
1531.267 3447259 3429258 3425117 3439812 3474045 3520207 3564369 3595472 
1535.124 3610139 3612578 3611442 3617957 3644353 3702429 3801357 3942869 
1538.982 4111989 4272609 4380034 4406743 4361090 4268961 4153836 4026635 
1542.839 3890244 3746776 3603089 3469470 3358496 3277229 3225586 3197280 
1546.697 3184629 3181725 3185330 3194443 3207828 3221480 3229759 3226120 
1550.554 3207794 3176952 3138971 3099858 3063418 3031852 3005160 2984675 
1554.411 2975033 2985476 3029350 3121082 3273858 3494620 3774650 4065798 
1558.269 4250391 4189297 3872592 3471741 3147314 2946310 2843808 2802020 
1562.126 2790715 2790482 2790748 2787580 2782245 2779577 2785580 2804555 
1565.984 2839172 2890036 2956151 3034722 3118980 3196579 3249588 3262273 
1569.841 3231494 3171512 3104596 3050204 3018139 3009898 3021976 3049003 
1573.699 3085375 3125287 3162267 3189169 3197747 3184429 3154891 3123752 
1577.556 3106899 3115342 3152588 3215238 3293588 3372588 3436071 3468100 
1581.413 3460385 3414764 3342268 3258200 3176552 3107166 3054141 3017338 
1585.271 2995485 2988011 2995985 3020274 3060848 3113841 3172613 3229024 
1589.128 3275360 3306743 3321767 3322235 3310683 3290817 3267014 3244346 
1592.986 3229224 3228824 3247651 3286544 3340899 3402141 3458949 3502804 
1596.843 3530128 3542989 3546930 3548133 3551541 3559224 3571885 3589959 
1600.701 3614081 3644854 3681376 3719272 3750353 3764724 3754797 3719339 
1604.558 3664234 3602187 3547198 3509251 3493017 3494687 3506044 3516499 
1608.415 3518637 3510587 3494620 3474346 3451234 3423414 3387481 3340232 
1612.273 3281703 3214737 3144878 3077266 3015870 2962389 2916921 2877795 
1616.130 2843007 2810791 2779477 2746632 2709488 2666080 2615675 2559244 
1619.988 2499255 2438873 2380166 2324332 2269604 2212785 2151045 2086284 
1623.845 2025195 1976895 1948504 1942946 1958988 1991774 2034050 2078660 
1627.703 2120179 2156206 2187542 2216482 2244091 2269937 2291421 2305578 
1631.560 2310575 2305411 2289989 2264741 2229870 2184611 2129268 2067074 
1635.417 2006220 1957557 1928335 1917186 1917885 1924341 1933493 1945642 
1639.275 1962749 1987014 2019103 2057220 2097538 2135329 2167228 2191538 
1643.132 2208955 2220445 2225973 2223242 2207190 2171724 2116283 2050129 
1646.990 1994270 1967775 1976463 2012346 2062613 2116915 2170492 2225274 
1650.847 2287724 2368406 2476227 2603209 2706954 2722524 2628076 2470096 
1654.704 2306377 2168028 2061181 1981522 1920713 1870229 1823178 1776764 
1658.562 1732285 1695693 1674671 1675968 1703277 1754840 1822013 1889797 
1662.419 1942313 1967509 1962916 1935557 1897251 1858649 1827237 1807972 
1666.277 1803314 1814727 1841612 1879880 1920913 1950501 1954561 1924840 
1670.134 1864872 1787943 1709631 1641144 1587334 1549191 1525017 1513014 
1673.992 1512316 1522856 1543306 1570141 1598408 1623351 1642175 1654415 
1677.849 1660635 1662031 1660535 1658772 1661266 1673340 1701248 1750415 
1681.706 1824176 1921213 2031719 2128536 2167728 2115417 1984950 1832195 
1685.564 1708267 1635656 1613140 1630701 1675137 1733748 1794198 1845671 
1689.421 1882642 1902908 1908633 1902609 1888099 1867268 1841712 1812963 
1693.279 1782886 1753775 1729257 1713190 1709897 1721972 1748353 1785215 
1697.136 1829234 1878482 1931596 1985183 2031553 2057586 2052093 2015841 
1700.994 1965678 1919449 1886835 1868865 1863241 1867600 1881643 1905671 
1704.851 1939418 1979358 2018071 2045502 2054423 2042306 2012179 1970804 
1708.708 1927137 1889131 1861211 1843509 1831264 1817455 1794830 1759497 
1712.566 1712159 1658705 1608318 1572203 1559101 1572435 1608584 1657442 
1716.423 1706038 1741699 1758000 1757701 1750981 1747854 1753143 1765785 
1720.281 1780524 1790272 1787344 1765452 1721340 1657574 1582312 1509623 
1724.138 1452870 1421022 1416368 1434253 1466401 1504336 1542474 1579286 
1727.995 1618129 1664692 1724101 1798290 1883341 1970039 2048731 2110722 
1731.853 2150646 2166063 2156706 2125339 2079326 2029589 1985649 1950601 
1735.710 1921312 1893424 1863707 1830598 1794331 1757069 1722571 1694861 
1739.568 1676434 1666588 1662863 1662098 1662530 1663961 1667054 1671777 
1743.425 1676367 1677166 1669748 1650756 1619326 1577623 1531535 1488543 
1747.283 1456726 1442198 1447384 1469792 1502973 1539149 1570806 1592854 
1751.140 1604327 1606722 1603230 1596545 1587965 1577058 1561761 1538418 
1754.997 1503804 1455662 1395592 1330478 1271024 1228922 1210414 1215565 
1758.855 1238957 1272619 1307380 1334533 1347728 1344305 1326125 1299172 
1762.712 1269894 1242579 1218489 1197091 1176724 1156724 1136857 1117357 
1766.570 1099519 1084770 1075137 1073177 1081648 1102774 1137821 1185529 
1770.427 1241948 1298374 1342111 1359760 1343939 1298640 1235933 1168119 
1774.285 1101943 1039000 978024 917887 859585 806302 762188 730922 714360 
1778.624 711606 720732 739352 765075 797207 835482 879638 927981 977293 
1782.964 1022526 1058430 1081448 1090683 1089653 1085202 1084504 1091779 
1786.821 1107923 1129748 1152604 1171574 1182472 1183602 1174631 1156890 
1790.679 1133170 1107757 1086099 1073144 1071018 1077828 1087992 1094337 
1794.536 1091148 1074705 1045177 1006618 966766 934191 916592 918053 938109 
1798.876 970884 1008145 1041192 1063180 1071915 1068893 1058197 1043749 
1802.733 1027807 1011367 994396 977625 962483 950960 944418 942691 943621 
1807.073 942559 934124 913637 878310 829241 770486 708951 651506 604420 
1811.412 570213 548714 536638 530634 528511 530302 537634 553823 581726 
1815.752 622935 676527 738323 802518 861510 908690 939836 953915 953018 
1820.091 941795 926454 912541 903311 899127 896338 888004 865195 819813 
1824.431 747882 652899 544700 438253 346819 279840 243835 242343 278614 
1828.771 353684 464456 599543 740248 867586 967065 1033287 1067464 1073676 
1833.110 1056736 1020733 969423 906233 835150 761159 691096 633520 597784 
1837.450 590850 615536 667434 736265 806667 864332 898563 903543 879272 
1841.789 830735 766536 696339 630302 575886 536871 513218 502436 502337 
1846.129 511692 529506 555416 587996 624495 660432 690631 709946 714028 
1850.469 700654 669127 622272 564838 503830 447341 402068 370298 349472 
1854.808 333290 313428 283620 242343 193181 144455 105180 81881 75751 83505 
1859.630 98386 114493 129043 143593 162950 192319 234254 286704 342708 
1863.970 393081 429828 448999 452581 447705 444123 448667 462200 476397 
1868.309 476397 447241 382203 287665 180916 81119 3711 -42177 -56589 -46451 
1873.131 -24187 -3976 1722 -15373 -57682 -121551 -198758 -278501 -347602 
1877.471 -392196 -400074 -360646 -269064 -128839 45859 233061 405650 538894 
1881.810 617494 637303 606179 538894 453808 365622 281763 202628 125960 
1886.150 51128 -16169 -64507 -78951 -48604 26706 130832 233989 304509 319496 
1890.972 275331 188673 88808 6494 -32668 -16467 51891 152874 255439 328449 
1895.793 347582 303116 200606 56994 -105850 -264627 -397261 -487558 -525684 
1900.133 -509302 -443372 -337769 -205448 -58278 92685 240918 383032 517895 
1904.473 644404 758769 854073 921274 951192 938640 883987 793821 680210 
1908.812 556478 436229 330671 247681 192021 165469 166961 191258 229679 
1913.152 268435 290185 279078 223546 121353 -18786 -177330 -328201 -443769 
1917.491 -502783 -499837 -446980 -370777 -296547 -242274 -213198 -203726 
1921.349 -200414 -187166 -151561 -87630 66 99413 194805 272414 323110 343769 
1926.171 337535 313262 284051 262567 260445 283819 332494 400709 480211 
1930.510 561753 639526 709714 770087 816029 840163 830934 776958 671781 
1934.850 516369 321253 104451 -110819 -302309 -452673 -551861 -597558 
1938.707 -593985 -547095 -461212 -341974 -197500 -41713 101899 205148 243669 
1943.047 203092 86587 -86769 -286316 -479615 -633425 -722615 -733498 -664359 
1947.386 -527703 -347304 -155238 14910 138555 204684 219237 205181 193777 
1951.726 211744 272977 370066 473677 541548 532392 422730 214993 -58510 
1956.066 -344192 -578433 -712195 -724004 -626774 -460319 -285521 -161862 
1959.923 -129104 -197400 -341974 -515822 -664293 -745141 -743586 -672663 
1963.780 -565031 -462271 -394513 -367069 -358097 -327737 -239029 -77029 
1967.638 133749 335777 453576 427606 234254 -104459 -530483 -955395 -1290011 
1971.977 -1473684 -1486430 -1358786 -1150280 -935558 -777059 -712526 -749441 
1975.835 -869890 -1037049 -1208240 -1348051 -1430952 -1443237 -1386102 
1979.210 -1272502 -1124735 -970834 -838045 -747059 -708391 -720795 -772330 
1983.068 -845089 -918200 -979099 -1025545 -1064054 -1108376 -1169513 
1986.443 -1248450 -1332130 -1392047 -1393004 -1304348 -1110127 -816879 
1989.818 -456744 -82827 248907 491423 627846 674967 677323 681505 718210 
1994.158 787149 860547 897301 859286 734772 542776 330206 149427 41154 9940 
1998.979 22531 15440 -75439 -287640 -614268 -1003001 -1371172 -1632391 
2002.837 -1735864 -1681672 -1523412 -1343922 -1232657 -1247822 -1396637 
2006.212 -1630047 -1861748 -2004680 -1992872 -1812026 -1494520 -1107648 
2009.587 -723640 -403021 -173388 -27897 66505 152045 262799 414903 602861 
2013.927 801489 973076 1079389 1090284 986559 770519 467938 127651 -189485 
2018.266 -421790 -528332 -498546 -357402 -157623 35222 157580 175480 92387 
2022.606 -50526 -194254 -278601 -266382 -154708 30683 246985 457258 642148 
2026.946 803680 954945 1106262 1250056 1360923 1404700 1355273 1212242 
2030.803 1002732 773938 581560 465915 435964 467408 513350 521146 450691 
2035.143 289721 50797 -229326 -506853 -736772 -884870 -931260 -870552 
2039.000 -710805 -473723 -194453 85494 322944 482003 544335 504228 369270 
2043.340 153437 -126619 -453633 -808115 -1164457 -1491218 -1750517 -1902294 
2047.197 -1917468 -1785463 -1522256 -1169083 -782020 -419009 -120558 91525 
2051.054 217612 276425 298275 314688 351197 422067 522937 632923 718044 
2055.394 742937 680476 523336 287698 10934 -259097 -478159 -614301 -657510 
2059.734 -619330 -525122 -400174 -263070 -119067 35123 204849 387907 571308 
2064.073 727403 825125 836080 741343 538795 241979 -120524 -511983 -890293 
2068.413 -1211941 -1439869 -1544411 -1511658 -1345805 -1072747 -734027 
2071.788 -378557 -57053 191126 340320 378820 310145 149891 -75804 -336379 
2076.128 -596102 -823362 -995430 -1101898 -1148958 -1155237 -1146117 
2079.503 -1142349 -1152627 -1170967 -1180153 -1159599 -1095288 -987463 
2082.878 -850512 -707398 -580749 -488518 -437612 -429072 -460153 -528464 
2086.736 -633756 -771139 -929044 -1084447 -1204936 -1259122 -1225256 
2090.111 -1103319 -917108 -712459 -537796 -433772 -420234 -490107 -614367 
2093.968 -749672 -855836 -902725 -879811 -793960 -666410 -524195 -392295 
2097.826 -291581 -232406 -215317 -232902 -273269 -322274 -370578 -414507 
2101.683 -457472 -506588 -568042 -642225 -721655 -790983 -832423 -832423 
2105.541 -786485 -700385 -587565 -464257 -343066 -230121 -125957 -29057 
2109.398 59811 135075 187247 205612 182209 116282 13552 -113634 -251580 
2113.738 -386667 -508409 -609338 -686359 -739022 -771172 -792108 -813605 
2117.595 -847867 -902626 -975727 -1053212 -1111152 -1124371 -1073507 -955164 
2121.452 -783939 -591569 -415533 -287276 -225716 -230286 -284031 -359918 
2125.310 -433210 -486069 -513009 -519893 -518172 -522110 -542231 -583694 
2129.167 -645799 -720994 -794489 -848230 -860466 -813209 -700319 -532204 
2133.025 -340782 -171865 -77394 -96972 -244857 -499142 -807652 -1102889 
2136.882 -1320139 -1421903 -1406810 -1309105 -1182103 -1084877 -1060484 
2140.257 -1122322 -1258362 -1437854 -1627671 -1803711 -1957382 -2092633 
2143.633 -2218710 -2337929 -2442914 -2515460 -2536279 -2494607 -2396587 
2147.008 -2264397 -2131508 -2026942 -1963616 -1934127 -1914433 -1876660 
2150.383 -1802589 -1695369 -1580265 -1496535 -1481048 -1555769 -1720947 
2153.758 -1956953 -2230347 -2513681 -2789490 -3056042 -3319834 -3583137 
2157.134 -3830844 -4031698 -4141756 -4124690 -3971127 -3704446 -3372507 
2160.509 -3027088 -2711359 -2448483 -2245114 -2100184 -2009693 -1974006 
2163.884 -1993565 -2064669 -2174040 -2290436 -2374476 -2380704 -2270297 
2167.259 -2026843 -1656685 -1190529 -676765 -176767 252389 562715 722823 
2171.117 724284 577711 308355 -48240 -450654 -856035 -1225950 -1526978 
2174.974 -1741111 -1862540 -1902063 -1877749 -1813544 -1732201 -1647608 
2178.349 -1566895 -1490690 -1418964 -1356375 -1317199 -1320502 -1384846 
2181.725 -1514992 -1694412 -1880223 -2018136 -2052699 -1948509 -1708571 
2185.100 -1380156 -1046337 -802758 -739716 -909041 -1313796 -1904273 
2188.475 -2591518 -3265312 -3813699 -4157575 -4255756 -4114023 -3776912 
2191.850 -3320557 -2831068 -2383505 -2034165 -1802787 -1677117 -1622092 
2195.226 -1598323 -1576502 -1548538 -1527209 -1536982 -1598720 -1714445 
2198.601 -1861814 -1999898 -2084620 -2083202 -1991850 -1835782 -1662363 
2201.976 -1518591 -1434882 -1413085 -1427748 -1435807 -1396737 -1291960 
2205.351 -1130254 -947725 -792373 -709052 -721258 -823626 -981843 -1148231 
2209.209 -1272535 -1319379 -1278911 -1166242 -1015100 -865327 -752120 
2212.584 -694431 -692876 -732274 -791347 -852364 -907553 -961181 -1026239 
2216.441 -1118489 -1246435 -1410608 -1600106 -1798761 -1987727 -2150434 
2219.817 -2273561 -2345871 -2358526 -2304049 -2180699 -1994390 -1765037 
2223.192 -1524073 -1305802 -1142647 -1052121 -1032355 -1064880 -1123347 
2226.567 -1183325 -1230642 -1263417 -1288855 -1315448 -1346102 -1374740 
2229.942 -1390428 -1384648 -1356078 -1313961 -1273427 -1249276 -1248913 
2233.318 -1267910 -1294273 -1315976 -1325655 -1325061 -1322319 -1325061 
2236.693 -1332625 -1335433 -1316571 -1261467 -1167035 -1046337 -925209 
2240.068 -832621 -790289 -802228 -854282 -919985 -972950 -995199 -982868 
2243.926 -944055 -891152 -831861 -764623 -680900 -571285 -433839 -280422 
2247.783 -132913 -18786 40392 39464 -7620 -69509 -109030 -91639 -994 156686 
2252.605 350832 535776 660498 681339 577678 356270 52620 -280786 -581278 
2256.944 -796077 -895253 -874784 -757379 -581874 -392063 -221113 -86040 
2260.802 13552 89040 155128 221557 288162 346156 383032 389101 360913 304641 
2265.624 233260 164210 113598 94044 112438 169049 256964 364925 478520 
2269.963 582588 666770 727204 767532 797373 827614 865594 911047 955443 
2274.303 984965 987621 957236 897334 820444 743600 680841 639294 615436 
2278.642 598581 575355 534814 474075 398354 318965 249504 202562 186352 
2282.982 203855 253615 330007 424720 526189 622438 701649 754753 777855 
2287.322 773174 748579 714758 683496 663087 658176 668861 692921 727403 
2291.661 769689 818186 870673 924063 974072 1015186 1043450 1057467 1059526 
2296.001 1054776 1049229 1047104 1049296 1053082 1052883 1044380 1026080 
2299.858 1001171 977061 963246 968228 996655 1047901 1116228 1192971 1267668 
2304.198 1332007 1380734 1412545 1429798 1437577 1442531 1450543 1466700 
2308.055 1493298 1529639 1573366 1620457 1667187 1711726 1753942 1795030 
2311.913 1837220 1880678 1923409 1961218 1988279 2000395 1996068 1977694 
2315.770 1951499 1925140 1904306 1891893 1886402 1882841 1875587 1861311 
2319.627 1840148 1817488 1800586 1797093 1811666 1844507 1890296 1942014 
2323.485 1991341 2031853 2060249 2076396 2082888 2084253 2086717 2096705 
2327.342 2119812 2159770 2216215 2284160 2353681 2412884 2451302 2462732 
2331.200 2448270 2415749 2376468 2340822 2315305 2300615 2293187 2288623 
2335.057 2283793 2279730 2281095 2292454 2316870 2352015 2391627 2426711 
2338.915 2449536 2456300 2447837 2428044 2401389 2370038 2333693 2290322 
2342.772 2239062 2182480 2125905 2077129 2041740 2021367 2013244 2011913 
2346.629 2012745 2014609 2019769 2032985 2059584 2102099 2160569 2231735 
2350.487 2309875 2387896 2460699 2525782 2583209 2634609 2679382 2712755 
2354.344 2727726 2715923 2673447 2603708 2518950 2436408 2375502 2351615 
2358.202 2372637 2438340 2540413 2667946 2808590 2953582 3098556 3243345 
2362.059 3388716 3534036 3672855 3791964 3872124 3892617 3838594 3706339 
2365.917 3508349 3271020 3031518 2826065 2679815 2602108 2584409 2604575 
2369.774 2635676 2656112 2653311 2627109 2584876 2538280 2496855 2464164 
2373.631 2437041 2408286 2368372 2308643 2224908 2117581 1992706 1860280 
2377.489 1732883 1622386 1536289 1476208 1436447 1406263 1371959 1323034 
2381.346 1255206 1172571 1085667 1008843 954546 928712 929476 947407 970419 
2385.686 986791 990013 979718 960390 937744 916393 897600 879472 859751 
2390.025 838005 817556 804809 807597 830204 872533 928015 986193 1035080 
2394.365 1065637 1074340 1063545 1040394 1013360 990544 976131 971382 974504 
2398.705 983039 994197 1006850 1020400 1034482 1048333 1060091 1066866 
2402.562 1066136 1056072 1036176 1007946 974172 938707 905369 877679 858821 
2406.902 851119 856298 875089 906531 947307 991739 1031593 1057400 1061652 
2411.241 1039132 989780 918950 836943 755782 687412 641783 623864 634284 
2415.581 669326 722359 784626 846570 899658 936283 951923 945879 921340 
2419.920 885415 847201 816128 799199 799530 816493 846205 883124 922170 
2424.260 960125 995226 1027475 1057334 1084803 1109285 1129017 1141475 
2428.117 1143867 1133170 1107192 1065571 1011035 949631 890993 846504 826585 
2432.457 837673 880069 947606 1029700 1113371 1188353 1248062 1290232 
2436.314 1315656 1325094 1318181 1292691 1246733 1181077 1101346 1018640 
2440.172 946178 896272 877114 888436 923698 971316 1019670 1059227 1085069 
2444.511 1096130 1093905 1080419 1057134 1025216 987123 947108 911977 888602 
2448.851 882128 893815 919448 949797 974371 983503 972379 942426 901153 
2453.191 860282 831465 823531 839234 874857 920211 962117 988584 990810 
2457.530 966700 921606 865727 811049 768494 743799 737460 745525 761623 
2461.870 780975 801921 825722 856231 896903 948536 1008610 1071816 1132240 
2466.209 1185030 1228058 1261786 1288371 1310006 1327454 1340217 1347163 
2470.067 1347496 1342144 1333304 1323167 1313097 1301731 1285347 1258562 
2473.924 1217160 1159780 1089420 1013393 941363 882825 843649 824461 820510 
2478.264 823398 823564 814966 797306 776461 762918 769092 803348 867387 
2482.604 953915 1048698 1134665 1196227 1225267 1223273 1200546 1171442 
2486.461 1151342 1150279 1170611 1207424 1250620 1289335 1314459 1321405 
2490.318 1309806 1283353 1247264 1207557 1170378 1141076 1124167 1122971 
2494.176 1138319 1169016 1210946 1259194 1308444 1355373 1398551 1438874 
2498.033 1478403 1518401 1559633 1601634 1643273 1683718 1722704 1760030 
2501.891 1794664 1824243 1844474 1850397 1838517 1807739 1761294 1706138 
2505.748 1650789 1602831 1567447 1545301 1534228 1529972 1529273 1530870 
2509.605 1535957 1546731 1564887 1589495 1616333 1637951 1645069 1629537 
2513.463 1585837 1513081 1415770 1303558 1189283 1086630 1009208 966301 
2517.320 961918 994164 1055739 1134897 1217824 1292459 1349324 1384457 
2521.178 1398916 1398949 1393033 1390473 1398251 1420224 1455762 1500546 
2525.035 1548393 1592023 1625479 1645501 1650324 1640678 1617996 1584540 
2528.893 1543405 1498517 1454399 1416734 1389542 1374950 1370995 1372025 
2532.750 1369399 1355506 1326191 1283552 1236166 1197722 1181043 1194998 
2536.607 1240452 1309507 1387548 1457424 1505234 1523588 1512449 1479034 
2540.465 1434585 1389742 1352381 1326690 1312033 1305619 1303824 1303725 
2544.322 1304788 1308676 1318481 1338123 1370829 1417465 1476208 1542508 
2548.180 1610147 1672043 1723635 1762159 1788043 1803348 1810801 1811932 
2552.037 1807507 1797492 1783052 1766750 1753110 1747221 1752178 1767781 
2555.895 1790405 1813529 1830532 1838517 1838617 1836321 1838251 1849964 
2559.752 1872658 1903208 1935557 1963814 1985516 2001827 2016540 2033783 
2563.609 2054357 2074365 2086484 2082389 2056687 2010182 1949369 1884472 
2567.467 1827337 1786412 1766151 1767515 1789473 1831596 1894955 1980956 
2571.324 2089813 2217281 2354414 2486858 2599208 2678215 2715656 2711522 
2575.182 2672114 2609708 2536747 2465031 2402888 2354480 2320435 2299282 
2579.039 2288823 2286558 2291021 2301714 2318569 2342721 2374936 2416049 
2582.896 2465831 2522949 2584476 2647111 2705987 2756902 2795984 2820195 
2586.754 2828300 2821296 2801687 2774408 2745665 2722158 2708921 2708754 
2590.611 2720591 2740196 2760970 2776042 2780344 2772274 2753868 2730127 
2594.469 2707921 2692717 2688550 2696285 2713856 2737396 2762304 2784479 
2598.326 2801386 2812892 2821563 2832068 2850412 2882364 2931598 2998687 
2602.184 3078934 3164336 3244280 3308345 3348579 3362002 3351017 3322235 
2606.041 3284441 3247217 3217408 3199583 3195143 3203255 3221080 3244947 
2609.898 3270920 3294323 3311384 3320231 3321166 3317093 3313754 3317260 
2613.756 3332151 3359732 3396998 3437440 3473711 3499397 3512223 3513893 
2617.613 3509017 3502203 3496357 3490144 3479523 3458782 3424783 3378231 
2621.471 3325106 3273991 3234399 3213035 3211466 3226621 3252458 3282437 
2625.328 3312118 3340432 3368413 3397833 3428958 3459283 3483631 3496725 
2629.186 3494386 3475849 3444454 3406783 3370484 3342502 3327243 3325841 
2633.043 3336258 3354422 3376194 3397265 3415198 3429291 3440780 3452236 
2636.900 3466998 3488174 3517601 3555115 3598612 3644119 3687792 3725956 
2640.758 3756903 3780600 3798148 3810615 3818270 3820643 3816331 3804833 
2644.615 3786616 3764290 3742064 3724184 3714560 3714860 3724752 3742131 
2648.473 3764423 3789023 3814125 3838661 3862228 3884727 3906191 3926987 
2652.330 3947651 3969051 3991087 4012890 4031852 4044293 4047002 4038541 
2656.188 4020716 3998711 3980052 3972628 3981690 4008208 4048708 4096569 
2660.045 4144101 4185015 4216664 4239282 4255477 4267924 4278197 4286060 
2663.902 4290043 4288737 4282179 4272173 4262303 4256012 4256648 4265515 
2667.760 4282413 4305703 4333446 4363299 4393188 4421103 4445171 4463181 
2671.617 4474228 4478045 4476371 4472052 4468571 4468973 4474496 4484640 
2675.475 4497161 4509180 4517751 4520730 4517249 4506869 4489628 4465759 
2679.332 4435865 4401288 4364470 4329129 4299479 4279435 4271705 4277059 
2683.189 4293957 4319692 4350682 4383448 4415547 4445405 4472052 4495286 
2687.047 4514637 4530071 4540886 4546344 4544971 4535161 4515106 4483568 
2690.904 4440753 4388569 4330769 4272943 4220646 4178257 4148115 4129684 
2694.762 4120451 4116572 4114865 4113260 4111521 4110484 4111487 4115233 
2698.619 4121623 4129450 4137579 4145306 4152966 4161563 4172603 4187256 
2702.477 4205758 4227237 4250324 4273111 4294326 4313099 4329497 4343620 
2706.334 4355769 4365977 4373842 4379565 4383414 4386962 4392351 4402492 
2710.191 4420099 4447045 4483769 4529034 4580297 4633877 4686425 4734792 
2714.049 4777001 4812211 4839752 4860157 4873594 4881066 4884283 4885556 
2717.906 4888270 4896145 4912129 4937799 4972889 5014986 5060239 5104894 
2721.764 5146031 5182546 5214704 5243344 5269302 5292176 5310455 5322161 
2725.621 5325516 5320317 5308141 5291672 5274634 5260112 5249179 5242472 
2729.479 5238783 5236972 5235999 5235295 5233886 5230432 5222484 5206925 
2733.336 5180031 5139661 5085315 5018908 4944066 4866088 4790167 4720891 
2737.193 4661674 4614353 4579527 4556088 4541891 4533018 4525116 4514035 
2741.051 4496525 4472420 4443665 4415178 4392083 4378461 4375682 4381406 
2744.908 4390778 4397874 4398543 4391313 4378595 4365408 4358045 4361124 
2748.766 4377088 4405036 4441723 4482229 4522036 4557260 4585420 4605411 
2752.623 4616496 4619208 4614487 4604139 4590610 4576212 4562918 4551936 
2756.480 4543130 4535194 4527527 4520027 4514035 4512528 4518353 4533420 
2760.338 4557862 4589103 4622524 4653502 4677716 4693090 4700358 4702469 
2764.195 4703540 4707727 4718446 4737472 4765209 4800284 4840589 4883043 
2768.053 4924126 4960421 4989714 5011031 5025344 5036003 5047836 5065603 
2771.910 5092925 5131480 5180098 5235463 5293651 5350942 5405221 5456252 
2775.768 5505108 5553835 5603541 5654696 5706864 5759341 5811555 5864078 
2779.625 5918253 5975996 6038685 6106659 6178946 6253598 6328228 6401291 
2783.482 6472686 6544091 6618234 6697941 6785538 6881165 6983176 7088108 
2787.340 7191987 7291376 7383980 7469929 7550771 7629536 7708789 7790686 
2791.197 7875737 7963303 8051324 8138384 8223133 8305364 8386091 8467576 
2795.055 8551950 8641341 8737107 8839724 8948352 9061508 9176825 9292037 
2798.912 9404774 9513645 9618209 9719611 9819886 9922251 10030540 10147607 
2802.770 10276308 10417945 10572834 10740004 10917841 11103602 11294203 
2806.145 11486522 11677666 11865829 12050838 12234324 12419865 12611284 
2809.520 12812377 13024864 13248761 13481285 13718550 13957040 14194291 
2812.895 14430576 14667812 14909259 15157804 15414663 15679438 15950698 
2816.271 16226392 16506186 16791292 17085580 17393690 17720242 18069110 
2819.646 18441942 18838518 19257346 19696480 20154416 20630558 21125448 
2823.021 21640686 22178714 22742894 23336896 23964870 24630642 25338074 
2826.396 26089936 26888748 27736924 28637508 29594800 30614960 31705066 
2829.771 32873568 34127828 35474632 36919004 38465396 40118256 41883816 
2833.147 43770684 45790480 47957040 50284100 52784928 55469324 58343044 
2836.522 61406820 64656800 68085272 71680640 75430024 79318904 83331352 
2839.897 87453512 91670656 95970232 100342600 104779984 109277224 113831656 
2843.272 118440224 123099104 127801880 132537752 137292288 142046784 
2846.166 146776720 151453984 156041408 160492416 164752832 168756016 
2849.059 172429520 175701504 178500256 180764272 182444432 183504016 
2851.952 183923296 183699264 182849408 181409616 179437792 177008032 
2854.845 174199504 171097456 167779104 164309808 160748304 157141392 
2857.738 153530544 149955584 146450576 143048160 139777072 136660064 
2860.631 133717760 130968424 128428432 126113760 124037232 122205976 
2863.524 120619688 119269248 118137104 117199120 116429792 115802864 
2866.417 115292528 114875600 114526392 114216256 113913920 113581056 
2869.310 113178488 112668360 112014968 111193152 110188200 108999256 
2872.203 107638536 106132144 104515920 102828928 101113632 99408704 97747040 
2875.578 96158728 94668656 93299576 92074328 91012208 90129816 89439048 
2878.954 88943840 88642088 88526896 88589672 88821856 89217960 89774928 
2882.329 90490184 91360832 92380560 93539064 94824024 96220920 97715504 
2885.704 99296208 100952904 102677344 104463280 106304200 108194568 
2888.597 110129272 112103272 114111608 116148944 118208576 120283744 
2891.490 122366552 124449648 126526904 128592488 130641448 132669224 
2894.383 134672176 136648048 138598448 140529056 142449472 144370832 
2897.276 146303184 148250896 150212496 152180640 154146112 156101648 
2900.169 158045760 159983952 161927216 163887504 165874912 167895616 
2903.063 169951920 172045088 174178272 176357216 178590720 180888224 
2905.956 183256320 185698144 188213904 190802448 193464400 196203424 
2908.849 199025024 201935200 204937120 208030048 211209472 214470528 
2911.742 217808544 221220624 224704512 228253808 231855152 235486400 
2914.635 239114608 242702944 246212160 249603296 252841824 255892304 
2917.528 258715920 261271088 263507872 265373104 266815456 267785520 
2920.421 268243664 268162288 267525936 266334688 264602992 262359088 
2923.314 259639584 256488736 252952224 249073488 244896032 240462352 
2926.207 235815296 231002592 226072224 221070992 216044272 211028080 
2929.100 206050384 201131280 196281552 191506928 186809632 182189472 
2931.993 177646880 173183872 168805280 164519168 160336288 156268128 
2934.886 152326768 148521488 144859776 141348464 137993056 134800096 
2937.779 131777304 128931968 126270952 123799104 121518360 119429400 
2940.672 117532688 115829680 114323760 113019944 111923840 111040592 
2943.565 110372080 109916568 109667104 109613032 109738088 110022976 
2946.458 110446896 110986600 111620656 112328168 113088632 113882776 
2949.352 114688512 115480096 116229344 116903256 117467504 117891888 
2952.245 118150288 118225408 118108448 117797656 117295440 116605760 
2955.138 115733776 114684928 113467408 112093528 110578352 108939904 
2958.031 107195040 105356600 103433144 101428904 99345848 97186568 94955448 
2961.406 92658424 90301888 87890720 85428568 82918320 80365208 77777792 
2964.781 75169664 72556648 69955760 67381840 64845836 62355908 59918292 
2968.156 57539440 55226788 52988072 50829924 48755844 46765604 44855928 
2971.532 43022364 41261724 39573448 37959396 36422556 34964992 33585756 
2974.907 32280840 31042318 29862010 28731592 27645140 26599370 25594102 
2978.282 24631518 23714698 22848106 22034896 21276724 20572572 19918570 
2981.657 19307570 18730328 18178346 17644144 17123768 16616784 16126417 
2985.033 15657144 15213598 14798958 14413826 14056313 13722449 13407364 
2988.408 13106199 12815277 12532462 12257432 11991362 11735839 11492339 
2991.783 11261285 11041129 10829508 10623593 10421848 10225353 10036915 
2995.158 9861371 9702940 9563773 9441953 9332084 9226982 9118791 9002373 
2999.016 8876178 8741603 8602473 8462542 8324987 8190514 8059459 7931683 
3002.873 7808262 7691656 7584521 7488604 7404134 7328375 7257177 7185519 
3006.731 7109023 7025738 6936039 6842050 6747374 6655814 6569824 6490948 
3010.588 6419047 6352772 6289835 6227782 6165133 6101384 6037913 5976668 
3014.446 5920033 5868847 5822335 5777741 5731406 5679940 5622807 5561789 
3018.303 5501417 5446924 5401967 5366742 5337960 5309650 5274768 5228956 
3022.160 5171045 5103720 5032182 4962131 4897318 4839014 4785644 4734424 
3026.018 4682406 4627949 4571222 4513934 4458394 4407312 4362797 4326385 
3029.875 4298810 4279636 4267556 4259559 4251896 4240621 4222152 4194918 
3033.733 4159054 4116471 4070413 4024327 3981523 3944407 3914115 3891280 
3037.590 3875400 3864769 3856846 3848589 3836789 3819674 3797646 3773046 
3041.448 3750519 3734043 3725822 3725120 3727359 3725120 3711151 3680340 
3045.305 3631522 3568411 3498695 3431997 3377095 3340232 3323671 3325106 
3049.162 3338696 3356025 3369115 3370517 3356025 3325407 3281803 3231227 
3053.020 3181358 3139271 3109302 3093017 3088912 3092816 3099958 3105531 
3056.877 3106465 3100492 3087143 3066388 3039727 3009297 2979003 2953582 
3060.735 2937670 2934434 2944742 2966159 2993883 3022577 3047234 3064686 
3064.592 3073762 3074329 3065720 3046367 3013768 2966326 2904779 2833402 
3068.449 2760003 2693351 2641943 2609908 2596575 2597075 2604675 2612842 
3072.307 2617842 2618575 2615942 2610908 2602708 2588909 2566243 2532481 
3076.164 2488224 2437174 2385397 2339623 2304179 2280396 2266007 2256648 
3080.022 2247255 2233933 2214450 2188841 2157572 2122443 2085152 2048198 
3083.879 2014443 1988013 1972069 1968774 1977494 1994970 2014809 2029689 
3087.737 2033584 2022698 1996834 1959554 1916520 1874322 1838451 1813296 
3091.594 1800586 1799954 1809303 1825674 1844573 1862509 1876352 1884139 
3095.451 1886302 1885004 1883607 1885004 1891327 1902010 1914190 1922710 
3099.309 1922511 1909465 1882375 1843209 1797026 1750781 1711360 1684284 
3103.166 1672343 1675635 1691768 1716583 1745824 1774834 1799921 1817987 
3107.024 1827204 1826572 1815791 1795861 1768280 1735711 1700882 1666888 
3110.881 1636654 1612908 1597576 1592355 1596978 1610314 1629503 1649891 
3114.739 1666455 1673839 1669149 1651488 1623417 1589761 1556008 1526913 
3118.596 1504702 1488743 1476441 1465137 1453003 1441301 1433156 1432857 
3122.453 1443894 1466666 1498351 1533663 1566317 1591757 1608451 1618229 
3126.311 1624581 1631998 1643406 1658971 1677398 1695127 1709731 1719477 
3130.168 1724334 1725532 1724500 1722172 1718978 1715119 1710995 1707402 
3134.026 1706038 1708234 1714687 1724600 1735578 1744028 1746290 1739836 
3137.883 1723403 1698121 1666389 1632131 1599006 1570540 1549956 1539083 
3141.740 1539448 1551386 1574796 1607986 1648428 1692799 1736909 1776531 
3145.598 1808305 1829400 1838551 1836022 1823544 1803813 1780191 1756004 
3149.455 1734214 1717082 1705672 1700383 1700450 1704342 1710163 1715286 
3153.313 1717315 1713988 1704109 1687444 1665624 1641144 1617763 1599538 
3157.170 1589296 1588797 1598009 1614338 1633927 1651854 1663828 1666455 
3161.028 1658705 1642042 1619925 1597443 1578654 1567015 1563357 1566217 
3164.885 1572502 1578887 1582977 1583908 1582578 1580616 1579618 1580117 
3168.742 1581181 1581680 1580483 1577390 1573699 1571671 1572901 1577756 
3172.600 1584939 1591623 1595049 1593419 1587134 1577956 1568711 1560830 
3176.457 1554246 1546864 1535093 1516572 1491003 1460416 1430031 1405465 
3180.315 1391238 1389642 1400578 1421088 1447451 1475710 1502441 1525250 
3184.172 1543073 1555077 1562293 1566117 1569309 1574996 1585172 1599971 
3188.030 1617298 1632364 1639614 1634093 1613673 1579552 1536289 1489906 
3191.887 1446387 1410285 1383194 1364912 1354043 1349290 1350155 1356769 
3195.744 1369034 1386285 1406395 1425576 1440037 1446088 1441633 1426441 
3199.602 1402074 1371693 1339087 1308577 1283652 1266804 1258828 1258330 
3203.459 1262450 1266571 1266571 1259426 1244639 1224237 1201643 1181010 
3207.317 1164963 1154000 1146126 1138452 1127124 1110281 1087494 1060489 
3211.174 1031427 1002466 975899 952587 934323 923598 923299 936714 965803 
3215.514 1009739 1064143 1121609 1173369 1210647 1228291 1225466 1206461 
3219.371 1178983 1151907 1132838 1124998 1127356 1134798 1141143 1139349 
3223.229 1126160 1101379 1068095 1031626 997584 970386 952188 942691 939271 
3227.568 938541 936349 929409 915729 894678 867685 837673 809290 787381 
3231.908 776759 779846 796742 824560 857692 889598 913737 926022 925258 
3236.247 913371 894346 873329 855667 844944 843649 852613 871404 898463 
3240.587 931733 968360 1005023 1038435 1065305 1083275 1090583 1086564 
3244.444 1072214 1049263 1020367 989049 958332 929974 904772 881729 858389 
3248.784 832362 802020 768361 734506 706030 689071 688673 707092 742405 
3253.124 789472 841225 889299 927649 952388 961918 957435 941562 917887 
3257.463 890993 865494 845309 833125 828810 829673 830602 825755 810883 
3261.803 784858 750637 714161 682434 660864 651141 651273 656715 661959 
3266.142 663585 659901 652468 643276 633985 625026 615569 604586 591912 
3270.482 579270 569616 566829 573066 589589 615370 648187 684956 722757 
3274.822 759034 790468 814137 827083 827448 815929 795945 773473 754985 
3279.161 745525 746853 757176 771349 783531 789804 788443 780543 769125 
3283.501 756313 742671 727005 707590 683828 657645 633587 616797 612417 
3287.840 621774 642247 667799 691560 707258 712203 707324 697136 687511 
3292.180 683529 687711 700222 718144 737128 752993 762685 764677 760096 
3296.520 751433 742173 735801 734705 739617 749907 763316 777755 790966 
3300.859 801522 808692 811846 810153 802651 788510 767698 741974 714559 
3305.199 689702 671184 661726 661129 667036 675564 682666 685985 685288 
3309.538 682799 681870 686151 697202 715489 739319 765706 790966 812410 
3313.878 827316 834652 833856 825523 811016 790966 766669 738854 708552 
3318.218 677124 647059 621907 606278 604487 618622 647656 687246 728764 
3322.557 762619 780709 777357 751998 708951 655985 602463 556876 526487 
3326.897 515241 524165 551070 591281 638000 683396 720732 745260 755649 
3331.236 755018 749774 746787 751666 766635 789240 813904 833291 841524 
3335.576 836246 818950 794219 768892 749176 738688 738954 748579 764013 
3339.916 780643 793522 798468 792593 775564 749774 720168 692954 673839 
3344.255 666604 671449 685719 704603 723122 737925 747650 752894 755151 
3348.595 755715 754753 751666 745924 737427 727005 716020 705399 694680 
3352.934 682268 665874 643873 616432 586105 556511 532658 517265 511526 
3357.274 514146 522407 533686 545463 556212 565303 571872 575654 577379 
3361.614 578872 583584 595959 619750 656151 702114 750969 793755 821241 
3365.953 828478 815099 786385 750604 716816 691925 678684 675863 679845 
3370.293 685753 689237 687943 680310 666173 646661 622935 597486 573697 
3374.632 555449 546558 549909 565867 592509 625358 658209 685520 702280 
3378.972 706163 697633 679215 654890 629472 606610 588560 576052 567990 
3383.312 562748 558634 554686 550440 546525 543373 540918 538961 537501 
3387.651 537037 540056 549146 567260 595329 631728 670885 705433 727735 
3391.991 732880 721098 697302 670023 648287 637403 638232 646993 656782 
3396.330 660233 652833 633587 605847 575190 547354 527151 516535 515639 
3400.670 522373 534449 549278 565070 581427 598415 616896 637535 659868 
3405.010 682102 700587 710278 706992 688474 656085 614574 571839 535278 
3409.349 510564 499451 499584 506284 514279 519819 521677 520516 517099 
3413.689 511758 503763 492153 477093 461868 451652 453278 471521 506682 
3418.028 553525 602197 640621 657811 648785 614574 563246 505455 452681 
3422.368 413212 390726 385088 393810 412648 437855 466446 496565 527748 
3426.708 560492 595495 633421 673706 713862 750172 778220 794053 796543 
3431.047 787713 772112 754753 739120 725445 709913 686450 649515 597088 
3435.387 532060 462466 399747 355309 337037 347881 384359 438850 500446 
3439.726 557971 602795 628410 633155 618754 591812 560492 533387 517364 
3444.066 515108 524696 540420 554885 560326 552297 529970 496532 457225 
3448.406 416197 377494 342409 312466 289820 277155 278481 295888 329676 
3452.745 375604 427075 475932 514412 537800 544833 537202 518857 494342 
3457.085 468171 443692 424157 411454 407342 411122 421072 433244 443327 
3461.424 448070 446644 441536 437722 440607 453974 477757 507777 536473 
3465.764 555748 558402 541582 506384 458717 406811 358525 320922 297645 
3470.104 288826 292009 302552 315716 326890 333854 336639 337734 340950 
3474.443 350368 368606 396265 431818 472151 513947 554653 592608 626983 
3478.783 657611 683363 702943 714360 716418 708353 691361 667965 641186 
3483.122 613645 587499 563246 541449 521544 503398 487177 472814 460807 
3487.462 451885 447175 448037 455401 469332 488239 508607 525625 534947 
3491.802 533354 520947 500745 478520 460077 450226 450923 460973 477259 
3496.141 496465 516070 535146 554388 573199 590419 603392 609165 606146 
3500.481 595561 581792 571440 570478 581825 603458 628742 649050 657611 
3504.820 652103 634715 611123 587034 565900 548250 530833 508938 479250 
3509.160 441536 399780 360415 331035 316810 319662 337734 366650 400941 
3513.500 435168 464655 486348 498290 500081 492551 478288 460376 443128 
3517.839 430060 423460 423692 428767 435632 441437 444389 444687 444156 
3522.179 445450 450624 460376 473378 487177 499053 507877 514213 519852 
3526.518 527051 537402 551203 566563 581095 592243 598116 598813 595296 
3530.858 588826 581228 573033 564108 553525 540586 524198 503763 479349 
3535.198 451918 423095 395734 372918 358326 354944 364229 386349 418518 
3539.537 456296 493845 524397 541913 542842 525923 493480 450724 404821 
3543.877 363400 333721 319595 320856 333124 349273 361841 365323 358326 
3548.216 343006 324271 307194 296717 295291 302751 316545 332594 345825 
3552.556 352457 350600 340618 324072 303348 281200 260345 244266 236376 
3556.896 240288 258389 291445 337667 392418 449463 502005 545098 576119 
3561.235 595495 606013 610658 612118 611090 607174 598713 583716 561587 
3565.575 533255 502834 476264 460044 457988 469497 489997 512952 532425 
3569.914 543439 543340 531795 510696 483960 457158 436097 424621 424024 
3574.254 432050 444389 454604 457158 448269 426976 395469 357331 318037 
3578.594 283421 259284 249935 258257 284880 327852 383629 447341 513848 
3582.933 579337 640356 695277 742339 778817 800394 801157 775299 721297 
3587.273 645466 562151 488106 435765 408734 403461 411852 425450 437656 
3591.612 444422 444886 441901 440541 446578 465351 499351 546890 602960 
3595.952 659569 708154 740182 749176 731785 688673 624827 549842 476563 
3600.292 417125 381275 373680 392849 433709 489533 554653 623898 693585 
3604.631 759267 814535 851982 862506 839267 780576 693186 592741 498655 
3608.971 428535 391821 388504 412383 455367 509801 569019 628278 682168 
3613.310 724649 750371 755250 738257 701682 650643 592310 536207 493082 
3617.650 472682 482202 521411 583186 654957 723454 780742 824129 855733 
3621.990 878940 897035 911678 922835 929243 929276 921739 906631 885282 
3626.329 860016 833623 808560 786651 767565 748911 727370 701848 673076 
3630.669 644404 619717 603060 599145 611355 641451 688009 745625 805273 
3635.008 858091 896903 917223 918319 902248 872997 836345 797771 761988 
3639.348 731154 705300 682899 661859 640588 618389 596159 575190 556776 
3643.688 541615 529705 520516 514246 511924 515573 528478 552994 588262 
3648.027 628012 661394 677157 669691 643276 610824 586669 579038 588560 
3652.367 609364 633122 650045 652335 633620 592177 532127 465219 407143 
3656.706 370066 357663 365158 384359 407209 429132 449132 468502 489765 
3661.046 514279 542477 572336 601202 625623 643110 652169 652402 644371 
3665.385 629339 608966 585143 559530 533951 509635 486945 465915 447142 
3669.725 433344 428767 438286 464622 506583 561587 624661 689835 747982 
3674.065 786817 792327 757707 690100 611820 545032 497958 469630 454439 
3678.404 448667 451022 462333 483330 513218 549378 587764 624628 657943 
3682.744 687412 715057 743833 776792 815564 860415 909653 960523 1009108 
3687.083 1050159 1077894 1086763 1073277 1038169 987090 927848 868980 816560 
3691.423 773506 740514 716119 698629 686549 680011 680277 689536 709116 
3695.763 739053 776892 817821 856464 888502 911280 924296 928413 924628 
3700.102 913405 895176 869910 838935 805174 771847 742173 717779 698463 
3704.442 682832 669160 655985 643110 631397 623367 622703 634051 661627 
3708.781 709482 779050 866590 961353 1046074 1099120 1103770 1055308 963080 
3713.121 846238 726175 620546 540221 490428 471952 482434 517497 570677 
3717.461 634848 700952 760561 806734 835017 844612 837972 820809 800261 
3721.800 783431 775066 775963 783697 793555 801456 805140 804111 799564 
3726.140 792560 782933 769689 752164 730324 706528 685222 671615 672279 
3730.479 693220 738024 806336 892885 988120 1079489 1155362 1204567 1217193 
3734.819 1186492 1113304 1009673 896438 794120 714194 658375 622338 599377 
3739.159 584811 576649 576318 586769 611189 650809 702512 758437 805539 
3743.498 826619 810253 762619 708486 673772 671815 701284 754255 820776 
3747.838 891391 957435 1010337 1042421 1048565 1026678 979219 913571 841491 
3752.177 776062 727603 701981 698430 712369 737958 769224 802418 836080 
3756.517 870607 907461 946643 984699 1014090 1026146 1013725 976829 923333 
3760.857 866756 820776 794053 789672 804709 832660 864797 893151 912076 
3765.196 920875 924030 928247 939238 958863 984433 1009573 1026478 1026976 
3769.536 1006518 967032 915430 860979 811713 772544 744795 729627 726375 
3773.875 735203 755981 787580 827747 872466 916725 955077 982540 995791 
3778.215 993998 979718 957568 933394 911213 891524 872533 851716 827017 
3782.555 799331 771515 748048 733876 731154 738721 752031 765341 774270 
3786.894 777290 776394 775332 778153 787215 801788 818784 833457 841392 
3791.234 840329 831001 817058 803248 794120 792460 799132 812344 829507 
3795.573 847633 864930 881597 900190 923631 954181 992105 1034781 1076732 
3799.913 1108321 1116394 1089553 1025814 937212 845077 768859 717380 691228 
3804.253 687213 700056 723952 752330 777987 794053 797472 789871 776593 
3808.592 763880 756180 756512 765839 783763 808560 837275 865494 888336 
3812.932 901418 900389 882593 848064 801356 753193 717048 703640 714559 
3817.271 742903 777689 810053 833192 843217 839499 824693 804842 787547 
3821.611 778319 777589 783332 792792 804908 819282 835482 852380 867619 
3825.951 878110 881962 880202 876484 875985 883323 899758 923598 949665 
3830.290 971382 982109 978854 963280 941861 923034 913703 917787 936316 
3834.630 968194 1012064 1066966 1130678 1198553 1261653 1305785 1316387 
3838.487 1284383 1212441 1115430 1015120 933294 884219 872466 893051 934357 
3842.827 980548 1016448 1032955 1028537 1007979 980515 955376 938873 933892 
3847.167 940599 956406 978755 1003994 1029501 1053215 1074174 1091214 
3851.024 1103571 1109119 1104368 1085368 1050658 1005023 959760 924661 
3854.881 903776 897168 901783 914434 931866 951093 969357 984666 995359 
3859.221 1001437 1002433 999311 992603 983404 972843 961619 950329 938541 
3863.561 925026 908988 889797 868947 848894 832727 822701 819813 823033 
3867.900 830370 837773 839599 831100 810751 782203 752396 727802 712236 
3872.240 707855 715323 734606 765540 806435 854007 905203 957435 1009009 
3876.579 1059891 1109750 1158252 1204135 1244407 1275344 1292126 1291960 
3880.437 1275410 1247231 1213737 1180777 1151176 1124200 1096529 1063744 
3884.294 1021430 967862 905801 842421 786684 744530 717414 703972 702346 
3888.634 712103 734108 768959 815796 869810 922170 962051 982208 982109 
3892.973 967364 947440 930339 921606 922270 929874 938806 943023 936747 
3897.313 916227 881098 834553 782502 732415 691328 664082 653298 659105 
3901.653 679912 713132 753790 795713 831731 855368 864299 860813 850488 
3905.992 840329 836312 841292 855302 875786 898463 918385 932032 937412 
3910.332 935419 929741 925126 927018 938773 961353 992570 1028106 1062449 
3914.671 1090284 1108155 1114268 1110281 1099286 1084969 1070387 1056238 
3918.529 1041756 1025748 1008345 990411 973873 961154 953616 951790 955011 
3922.868 962715 973873 987588 1001968 1015153 1023921 1024751 1016116 997950 
3927.208 972578 944750 920045 903410 898364 904539 918086 932962 943090 
3931.548 944916 938541 927350 916360 909951 910084 916194 926753 939935 
3935.887 954048 968726 983470 997717 1010404 1020068 1025648 1026478 1023091 
3940.227 1017478 1011832 1008145 1007481 1009573 1012529 1014821 1014555 
3944.084 1011965 1008378 1006120 1007381 1014190 1027143 1044679 1063877 
3947.942 1079920 1087693 1084438 1069723 1046904 1022559 1004193 997817 
3951.799 1007182 1031394 1065471 1101744 1131774 1148618 1149315 1134266 
3955.656 1107757 1075968 1044679 1017976 997817 984267 976530 974637 979087 
3959.996 991274 1011699 1040062 1073443 1106727 1133768 1148850 1148950 
3963.854 1133635 1105896 1070886 1034781 1003562 981478 970818 971316 980548 
3968.193 994263 1007946 1017478 1019304 1012297 996754 975002 950495 927018 
3972.533 908656 898065 896836 905104 921108 942260 965504 987854 1007116 
3976.872 1021662 1031560 1037272 1039896 1041125 1042520 1044912 1048798 
3980.730 1053315 1057068 1058330 1055042 1046805 1034316 1019304 1005090 
3984.587 995260 992835 999444 1015884 1041092 1073476 1111809 1154000 
3988.445 1198354 1242080 1281492 1311967 1328950 1329116 1311668 1279132 
3992.302 1236731 1192174 1152970 1125230 1112208 1113404 1124998 1141741 
3996.159 1157986 1168883 1172571 1169016 1160146 1149282 1139116 1132273 
4000.017 1129183 1129515 
##END=
