##TITLE=mc_0 31 12:46:50 2026 (GMT+02:00)
##JCAMP-DX=5.01  $$ Nicolet v. 970
##DATATYPE=INFRARED SPECTRUM
##ORIGIN=Vojna akademija
##OWNER=Nicolet
##LONGDATE=2026/08/31
##TIME=12:47:19
##SPECTROMETER/DATA SYSTEM=Nicolet iS20
##DATA PROCESSING=
Ratio against background
%Transmittance->Absorbance
Truncated
ElementMultiply or ElementDivide
##COMMENTS=
Number of sample scans: 8
Collection length: 11,90 sec
Sample gain: 8,0
Background collected on: Mon Aug 31 12:42:55 2026 (GMT+02:00);
Number of background scans: 8
Background gain: 8,0
Sample spacing:  1,000
Number of scan points: 12415
Resolution points: 8286
Number of FFT points: 65536
Apodization: N-B strong;
Phase correction: Mertz;
Laser frequency: 15798,00 cm-1
Number of rejected sample scans: 0
Number of rejected background scans: 0
Bench serial number: BER2010005;
##RESOLUTION= 4,000
##XUNITS=1/CM
##YUNITS=ABSORBANCE
##FIRSTX=400.156891
##LASTX=4000.123047
##FIRSTY=0.001569
##MAXX=4000.123047
##MINX=400.156891
##MAXY=0.231889
##MINY=-0.009495
##XFACTOR=1.000000
##YFACTOR=1.000000E-009
##NPOINTS=7468
##DELTAX=0.482117
##ZPD=6100
##XYDATA=(X++(Y..Y))
400.157 1569476 1005455 -321744 -2230742 -4332298 -6137875 -7244272 -7390199 
404.014 -6570393 -5028783 -3227459 -1692332 -859904 -949543 -1903052 
407.389 -3459197 -5257794 -6968670 -8324519 -9174311 -9494746 -9365965 
410.763 -8926647 -8301960 -7577596 -6762026 -5802757 -4618330 -3155657 
414.138 -1431513 441370 2281295 3839329 4840221 5026215 4199936 2359677 
417.995 -137948 -2443376 -3580968 -3066637 -1222382 1216462 3588222 5524437 
421.852 6916344 7765758 8125522 8061721 7651928 6994591 6218068 5478901 
425.709 4915648 4635920 4686425 5040663 5603641 6228522 6764604 7083359 
429.566 7122260 6892610 6472517 5971226 5488196 5081493 4744037 4411129 
433.423 3989281 3406182 2640543 1761194 920842 338165 209921 630003 1554445 
437.762 2820262 4202579 5460178 6400552 6882040 6828552 6230673 5140466 
441.619 3669012 1968241 242642 -1292324 -2449866 -3098549 -3197628 -2793605 
445.476 -2006395 -995629 53779 967729 1631466 1998265 2095340 1995236 
449.333 1789873 1565020 1397454 1362087 1518700 1899880 2482359 3178354 
453.190 3847686 4343084 4567606 4496893 4188561 3756268 3350315 3104430 
457.047 3087210 3275694 3567977 3844711 4041350 4170763 4286328 4430710 
460.904 4601694 4740922 4759212 4581871 4190836 3651236 3093083 2672447 
464.761 2509385 2668513 3139305 3844009 4642618 5365232 5856387 5997059 
468.617 5739162 5112973 4229847 3263342 2431176 1964680 2028890 2669047 
472.474 3762585 5069324 6312427 7308190 8020137 8521469 8918149 9273826 
476.331 9568380 9705008 9560251 9057753 8230866 7229854 6274943 5557291 
480.188 5196730 5191030 5437429 5773846 6058676 6219345 6262707 6247110 
484.045 6230908 6232925 6225967 6159588 6007743 5791542 5576959 5437966 
487.902 5413440 5482592 5564877 5554775 5365702 4978587 4456251 3924011 
491.759 3514962 3329079 3390086 3648128 4006603 4371064 4680329 4906634 
495.616 5046797 5101172 5064865 4931097 4703775 4408718 4090381 3804799 
499.473 3598546 3493318 3480659 3527556 3596040 3661227 3725688 3814292 
503.330 3952699 4143064 4355032 4527226 4588434 4471349 4138281 3593200 
507.187 2889002 2114785 1372524 761656 350368 175016 237669 510862 939371 
511.526 1450742 1976895 2464731 2893838 3276929 3643885 4023458 4422844 
515.383 4818610 5161422 5392271 5465211 5366842 5122562 4783567 4407045 
519.240 4045229 3736316 3504474 3368848 3344606 3441648 3661862 3994665 
523.097 4416149 4892224 5389185 5874523 6319185 6696427 6973546 7114143 
526.954 7088916 6888032 6532554 6077224 5605018 5202163 4947250 4886528 
530.811 5019445 5300762 5654125 6001427 6274943 6434179 6461621 6357647 
534.667 6135458 5822637 5465580 5125914 4877346 4790334 4907873 5231237 
538.524 5709382 6254303 6752590 7105352 7251180 7173022 6896953 6476452 
542.381 5974081 5439140 4905829 4393589 3914082 3483097 3123652 2862085 
546.238 2723025 2718624 2843141 3072160 3368681 3684651 3966643 4168656 
550.095 4258087 4228843 4105767 3942267 3803028 3744537 3800086 3965606 
553.952 4202914 4451364 4655746 4784203 4838579 4846687 4846554 4862402 
557.809 4890817 4900668 4850541 4709402 4476371 4186186 3900608 3692638 
561.666 3616654 3694643 3908899 4212783 4538476 4817103 4991055 5014149 
565.523 4860559 4525685 4033023 3433266 2806289 2254516 1873657 1738439 
569.380 1873690 2246722 2770874 3330615 3816198 4136943 4247814 4150357 
573.237 3888070 3529293 3154724 2843374 2652845 2614508 2723258 2942573 
577.094 3211833 3469002 3670282 3796710 3856913 3878375 3893353 3922206 
580.951 3964937 4001754 4004530 3952298 3844644 3702997 3568077 3482763 
584.808 3475482 3553044 3697884 3877439 4056333 4209605 4322570 4390610 
588.665 4412802 4388334 4316546 4200773 4052988 3893687 3746776 3630219 
592.521 3545026 3475281 3395028 3285576 3148215 3009698 2913285 2905379 
596.378 3010899 3218976 3480592 3725488 3886299 3917392 3813457 3607566 
600.235 3357762 3120048 2931598 2800353 2712722 2646010 2585109 2530748 
604.092 2497722 2505353 2567643 2685449 2845309 3025146 3199983 3348713 
607.949 3456043 3512157 3511054 3451534 3337995 3182426 3006928 2837604 
611.806 2698185 2603108 2551178 2526149 2503787 2463098 2392693 2295685 
615.663 2187675 2089414 2019635 1988112 1997965 2047233 2133297 2254017 
619.520 2405354 2578309 2755902 2916621 3038125 3105431 3116611 3081404 
623.377 3014836 2928196 2820962 2680682 2490290 2241660 1948670 1652951 
627.234 1417099 1304423 1364746 1615269 2036713 2574643 3157193 3712153 
631.091 4178458 4519090 4717776 4772679 4688870 4478413 4161664 3769403 
634.948 3349414 2958219 2648677 2461898 2412084 2485825 2644244 2842407 
638.805 3038559 3210198 3358062 3502269 3669146 3877473 4128346 4401890 
642.662 4664487 4877313 5011635 5056787 5021456 4927478 4800653 4660468 
646.519 4511155 4344892 4147547 3909835 3636200 3349314 3082872 2875993 
650.375 2756802 2735895 2803821 2937203 3105498 3280434 3444788 3590494 
654.232 3716331 3822649 3903516 3945845 3932604 3846717 3681075 3442049 
658.089 3153322 2849511 2573010 2362476 2242126 2216681 2270470 2371571 
661.946 2479393 2556644 2577409 2530848 2421114 2259745 2057120 1815958 
665.803 1530437 1195363 820909 465020 246520 298010 671649 1286909 2002858 
670.142 2699419 3310983 3804866 4167418 4399982 4515842 4540652 4508410 
673.999 4453874 4402627 4366144 4344490 4330468 4313835 4284521 4234196 
677.856 4155442 4043557 3899337 3733742 3568912 3434835 3363605 3377830 
681.713 3482997 3664835 3895225 4139050 4363868 4548989 4687697 4784405 
685.570 4848865 4890683 4916352 4929656 4935755 4942793 4961929 5004395 
689.427 5076029 5174901 5290532 5407938 5512390 5593941 5651339 5690380 
693.284 5721435 5755916 5803496 5868881 5953590 6055081 6168729 6290474 
697.141 6418945 6558387 6719376 6916883 7162647 7458974 7790450 8123496 
700.998 8409197 8600242 8666083 8607509 8462002 8298373 8197099 8219317 
704.855 8392442 8700495 9095545 9514086 9904386 10243977 10541396 10826484 
708.712 11134128 11489073 11897328 12351168 12838654 13354911 13906985 
712.086 14508887 15171254 15892301 16654208 17429834 18194584 18942478 
715.461 19691972 20482878 21359550 22356796 23483698 24719758 26014612 
718.836 27299434 28502012 29547164 30370668 30922542 31171418 31115958 
722.211 30790990 30266600 29629312 28969546 28355912 27817496 27343788 
725.586 26894494 26420136 25881370 25268182 24598698 23913122 23253656 
728.961 22653554 22127282 21670396 21266182 20893978 20539498 20194646 
732.335 19858460 19533034 19221740 18928044 18657824 18419988 18226304 
735.710 18088454 18012914 17996234 18021930 18062480 18087038 18067280 
739.085 17986944 17845856 17659466 17452288 17249796 17069832 16914088 
742.460 16767563 16603841 16397096 16131472 15811920 15464583 15133033 
745.835 14862213 14683064 14602905 14602768 14642691 14674941 14661746 
749.209 14584504 14448971 14278552 14105187 13955295 13840721 13757845 
752.584 13690543 13617783 13520661 13388841 13221673 13027526 12820635 
755.959 12619300 12442914 12306820 12220045 12180752 12175675 12180173 
759.334 12166373 12111139 12004612 11855886 11692233 11551509 11467129 
762.709 11459815 11528608 11650981 11789287 11904854 11969428 11972118 
766.083 11921098 11838384 11751260 11682158 11643834 11636823 11650981 
769.458 11669361 11672015 11641452 11564746 11435764 11258055 11044426 
772.833 10813271 10587161 10387401 10227931 10113555 10038814 9991141 
776.208 9954288 9914963 9866863 9810362 9751531 9696537 9647987 9602355 
780.065 9550462 9480761 9384696 9260625 9115068 8960597 8812301 8681666 
783.922 8573104 8482679 8401225 8318840 8228941 8131127 8030499 7934213 
787.779 7847059 7769603 7697220 7623062 7542510 7456378 7371578 7300002 
791.636 7252662 7235446 7246227 7274967 7306371 7324837 7320355 7289557 
795.493 7236356 7169957 7101647 7041869 6998665 6978159 6985331 7024122 
799.350 7097572 7206776 7350784 7524406 7719615 7926284 8133354 8331573 
803.206 8514542 8678995 8824440 8951735 9062489 9159228 9245630 9327413 
807.063 9412325 9510293 9631081 9782979 9969679 10188683 10429484 10674629 
810.920 10904012 11097075 11239115 11324062 11355658 11344536 11304406 
814.295 11244861 11165540 11055030 10894295 10665563 10360966 9991514 
817.670 9586773 9193374 8857038 8614065 8479503 8444805 8480246 8545055 
821.527 8601662 8621602 8594125 8524443 8429365 8328905 8241401 8179203 
825.384 8145610 8136157 8139364 8140309 8121437 8067595 7969344 7826007 
829.241 7647577 7452738 7266578 7111179 7001325 6940584 6920889 6926646 
833.098 6941426 6956577 6974153 7005972 7067463 7169720 7310987 7474783 
836.955 7632065 7752636 7815380 7816493 7770312 7706461 7657020 7644711 
840.812 7675400 7736918 7806373 7858362 7877425 7861566 7822397 7776586 
844.669 7738807 7715366 7702650 7691318 7672297 7643160 7608461 7577406 
848.525 7558323 7553535 7558053 7561357 7551883 7522754 7473030 7406932 
852.382 7330700 7249125 7165106 7080463 6999675 6930753 6883925 6867497 
856.239 6882679 6921024 6966375 7003716 7024863 7035976 7055743 7109394 
860.096 7215839 7377206 7574001 7770818 7928207 8013961 8016120 7945754 
863.953 7831203 7705551 7597300 7522957 7485267 7478626 7494672 7525721 
867.810 7565606 7607382 7642081 7658908 7650748 7617532 7572045 7535464 
871.667 7533576 7585229 7694185 7846283 8012138 8158405 8253828 8281689 
875.524 8239713 8139229 7997490 7834003 7667036 7512303 7385631 7301788 
879.381 7271969 7300541 7382632 7502898 7638911 7767815 7871149 7938871 
883.238 7970019 7968972 7941233 7891056 7820947 7735063 7642081 7556367 
887.095 7495313 7473941 7500133 7570494 7670982 7780465 7878977 7951424 
890.952 7992563 8005488 7999650 7986521 7975519 7975823 7993339 8032085 
894.809 8093147 8172485 8259197 8335390 8380247 8372883 8299961 8160499 
898.666 7967083 7743158 7516787 7315604 7159110 7056888 7008228 7006141 
902.523 7041599 7106901 7198219 7314458 7452772 7606067 7758539 7887783 
906.379 7969782 7983012 7919198 7785019 7605662 7415729 7253370 7148162 
910.236 7112088 7138091 7203508 7280729 7343943 7379565 7388361 7383272 
914.093 7381857 7399955 7445895 7517529 7604246 7688788 7753547 7782624 
917.950 7764847 7697423 7586308 7446873 7301788 7179927 7105857 7095719 
921.807 7151430 7260311 7397697 7534048 7644913 7714219 7738402 7723899 
925.664 7683932 7632942 7584790 7552895 7549961 7587926 7675771 7814436 
929.521 7992765 8187105 8366532 8498053 8558708 8542724 8464468 8352852 
933.378 8241637 8159959 8120830 8120965 8142369 8162221 8160567 8126839 
937.235 8064016 7985712 7910964 7858294 7841256 7863591 7919805 7996308 
941.092 8077181 8148682 8203920 8245589 8284897 8337045 8413522 8515961 
944.949 8633330 8743091 8816798 8831778 8778320 8665137 8516063 8364404 
948.806 8242246 8169885 8154557 8189772 8262339 8356602 8461190 8570198 
952.663 8681733 8795293 8909288 9019354 9119636 9203188 9262960 9293188 
956.520 9289194 9249319 9177095 9083703 8988706 8917472 8896943 8945715 
960.377 9068816 9253585 9474564 9697215 9889064 10029624 10111520 10140688 
964.233 10130072 10093478 10040103 9973985 9895979 9807041 9710835 9613839 
968.090 9522113 9439515 9364957 9293357 9218554 9136353 9047332 8958195 
971.947 8879120 8820619 8791608 8795124 8828734 8883787 8947676 9004775 
975.804 9039585 9040025 8998246 8913955 8794177 8651346 8498728 8346806 
979.661 8199597 8054497 7905160 7746396 7578823 7411617 7260008 7140381 
983.518 7065139 7036784 7047392 7080429 7118084 7147118 7163084 7171371 
987.375 7184644 7216546 7276214 7364265 7472929 7588567 7695163 7779925 
991.232 7835892 7862950 7865716 7852424 7831068 7806575 7779959 7747914 
995.089 7705079 7646127 7569955 7481357 7392608 7320523 7283054 7295218 
998.946 7363220 7481997 7634696 7796759 7939478 8037451 8076303 8054194 
1002.803 7984294 7889943 7801043 7743731 7734186 7774090 7848982 7932223 
1006.660 7992090 8003397 7953145 7846722 7705112 7560750 7445188 7378588 
1010.517 7364433 7388092 7420548 7427559 7383205 7276214 7116096 6930215 
1014.374 6759186 6644408 6616316 6688284 6850431 7074367 7318636 7543556 
1018.231 7719851 7834745 7894329 7918050 7930232 7947914 7977240 8010214 
1022.087 8029992 8017369 7960738 7859813 7727171 7582430 7446502 7335586 
1025.945 7255863 7205126 7175043 7156112 7140786 7126706 7117073 7120408 
1029.802 7146646 7204924 7299800 7427525 7574338 7717254 7831169 7892136 
1033.660 7886804 7816258 7696680 7553299 7412089 7293162 7204620 7145568 
1037.517 7110876 7098616 7112964 7162983 7254718 7382969 7525485 7647544 
1041.374 7707271 7673714 7537993 7319647 7059650 6809905 6616753 6506284 
1045.232 6483784 6536321 6643938 6787154 6952671 7132062 7315166 7485806 
1049.089 7622016 7699548 7704336 7638304 7523091 7391934 7279988 7211122 
1052.947 7189595 7201251 7222374 7231673 7219915 7193537 7170967 7172853 
1056.804 7210819 7280729 7363018 7429042 7449873 7405786 7292926 7124012 
1060.661 6925804 6732600 6582742 6508303 6529997 6652618 6863122 7129737 
1064.519 7407909 7651557 7820137 7890921 7864772 7763970 7623736 7479435 
1068.376 7358165 7268397 7201420 7135565 7047998 6922202 6756326 6562188 
1072.234 6363834 6188793 6059718 5990576 5983790 6032671 6126217 6253598 
1076.091 6405798 6575341 6754643 6931427 7087434 7202801 7255695 7232279 
1079.949 7131388 6969135 6776014 6591859 6457013 6399106 6427722 6532218 
1083.806 6685895 6851576 6993379 7085751 7116972 7091644 7025133 6940248 
1087.663 6858846 6797351 6763628 6757066 6768475 6784495 6791933 6779648 
1091.521 6741889 6679401 6598351 6508202 6419349 6341408 6281129 6242404 
1095.378 6226841 6233127 6257329 6292424 6328497 6353243 6353612 6319890 
1099.236 6247009 6136668 5997899 5845473 5695517 5562762 5459037 5390628 
1103.093 5360133 5367312 5410924 5489538 5602232 5748529 5926046 6129375 
1106.951 6348334 6566864 6765076 6922034 7019004 7045573 7002066 6901599 
1110.808 6766220 6624121 6501071 6413162 6364304 6347123 6346417 6346048 
1114.665 6335826 6313167 6283112 6253866 6232959 6222976 6222102 6225194 
1118.523 6227648 6228421 6230538 6239177 6260085 6296189 6346518 6407344 
1122.380 6473594 6540862 6607064 6671695 6734149 6792841 6843766 6881770 
1126.238 6900622 6896751 6868373 6818084 6751311 6676709 6605113 6548060 
1130.095 6516913 6519638 6558589 6628932 6718972 6813776 6897525 6959473 
1133.953 6997015 7016142 7026985 7040791 7063489 7092823 7119094 7129771 
1137.810 7114143 7068676 6998766 6916748 6839357 6781264 6752355 6756898 
1141.667 6793716 6858241 6944321 7046651 7159110 7275843 7391125 7500066 
1145.525 7600031 7692600 7782523 7876143 7978523 8089974 8204493 8310227 
1149.382 8393287 8442542 8453521 8431123 8387577 8340693 8306816 8296854 
1153.240 8313504 8351772 8400516 8447710 8485078 8510048 8526403 8541338 
1157.097 8563371 8596863 8641544 8691807 8738831 8774431 8793568 8795631 
1160.954 8784811 8767636 8748703 8729669 8707323 8675176 8624711 8549280 
1164.812 8446191 8318469 8175152 8029924 7900335 7803269 7753109 7757460 
1168.669 7813592 7907556 8015344 8108980 8159891 8148310 8067155 7923786 
1172.527 7735940 7528722 7327094 7148701 7004087 6895674 6820373 6772211 
1176.384 6744682 6731625 6726240 6722775 6715809 6702450 6682664 6659717 
1180.242 6638857 6624121 6617393 6616787 6618267 6617931 6614432 6610294 
1184.099 6610933 6621329 6643534 6674791 6708238 6735764 6751244 6753398 
1187.956 6746061 6736437 6730111 6730413 6735798 6742393 6746533 6748114 
1191.814 6751076 6762417 6788567 6831784 6887527 6946442 6994692 7020216 
1195.671 7016579 6984153 6930316 6868003 6812026 6776215 6769619 6796544 
1199.529 6853932 6932908 7019374 7098111 7154562 7179287 7170630 7135497 
1203.386 7087401 7041835 7013145 7008868 7028500 7063220 7101075 7128323 
1207.244 7135194 7118488 7081372 7032709 6983816 6946072 6927421 6930922 
1211.101 6954085 6990113 7029342 7062142 7082180 7086222 7075714 7054026 
1214.958 7026311 6996342 6966981 6939877 6916479 6898401 6887763 6885238 
1218.816 6889109 6893890 6892880 6878640 6847133 6799640 6742494 6685087 
1222.673 6636704 6602926 6585164 6581093 6588528 6607064 6639496 6689461 
1226.531 6757571 6837539 6916411 6976779 7002369 6985399 6930148 6853797 
1230.388 6779143 6728428 6715506 6741552 6796678 6865141 6932874 6991190 
1234.245 7039579 7081777 7122361 7162108 7197141 7220387 7226248 7213447 
1238.103 7186328 7153956 7126639 7111853 7112863 7128761 7156247 7192829 
1241.960 7236760 7288479 7347583 7412425 7478828 7541566 7595210 7637933 
1245.818 7670071 7694691 7714556 7730577 7741641 7744710 7738503 7724168 
1249.675 7706697 7693510 7691723 7704944 7730543 7760698 7784041 7789742 
1253.533 7771627 7730847 7676007 7620735 7580980 7569449 7592175 7647375 
1257.390 7725416 7811062 7887311 7940929 7964113 7957363 7928072 7888661 
1261.247 7851276 7824557 7812277 7813592 7825399 7844597 7870475 7904047 
1265.105 7948016 8003835 8070700 8145778 8224382 8301953 8375856 8444940 
1268.962 8510014 8571211 8627855 8676460 8713137 8734030 8737884 8727370 
1272.820 8708472 8688933 8675920 8675041 8688258 8714828 8751542 8795022 
1276.677 8841584 8889165 8936616 8983971 9031262 9079000 9127148 9175438 
1280.535 9223969 9272980 9323249 9375148 9429154 9484826 9540199 9591583 
1284.392 9635012 9665536 9680646 9680850 9671228 9660420 9659133 9677733 
1288.249 9722221 9792740 9883301 9983681 10082050 10168568 10238142 10291203 
1292.107 10333344 10372605 10418488 10478189 10555417 10649942 10757361 
1295.482 10870581 10981349 11083139 11172169 11248636 11316240 11380182 
1298.857 11445017 11512039 11578425 11637674 11682975 11709355 11716572 
1302.233 11710648 11701629 11700471 11715108 11747821 11794019 11844479 
1305.608 11888406 11917114 11926173 11916058 11890892 11855681 11814074 
1308.983 11767056 11712896 11648735 11572402 11483460 11384433 11280295 
1312.358 11176793 11078550 10987738 10902415 10817992 10728966 10632693 
1315.734 10530499 10430672 10344712 10286691 10266538 10285028 10332258 
1319.109 10389369 10434031 10446793 10419064 10354179 10265961 10172741 
1322.484 10092563 10037559 10010942 10008195 10019622 10035220 10047800 
1325.859 10055803 10063432 10079676 10114166 10177252 10276139 10414076 
1329.234 10589300 10794383 11017304 11241529 11449677 11627293 11765116 
1332.610 11863139 11929511 11979543 12029342 12093628 12182252 12299014 
1335.985 12442948 12610363 12798078 13002194 13218838 13441093 13657547 
1339.360 13854130 14019010 14146810 14241058 14312212 14371938 14427459 
1342.735 14480521 14528004 14565214 14589405 14604139 14618634 14647386 
1346.111 14703148 14793130 14916562 15064866 15223927 15379853 15523095 
1349.486 15649792 15761307 15861163 15952416 16036468 16113419 16184364 
1352.861 16252430 16323537 16404081 16498649 16607868 16728615 16856906 
1356.236 16990780 17134280 17297790 17495960 17743920 18053672 18433436 
1359.612 18888970 19426888 20058980 20801126 21668584 22661862 23754558 
1362.987 24890956 26001314 27024802 27922954 28682460 29305490 29801180 
1366.362 30185042 30482294 30734120 30995450 31333786 31810120 32462650 
1369.737 33306372 34337488 35550788 36955012 38582780 40484104 42701860 
1373.113 45234840 47990308 50770668 53327464 55432808 56959128 57880668 
1376.488 58220232 58002172 57229664 55898124 54030204 51706512 49070204 
1379.863 46281952 43494376 40812988 38289052 35942756 33776640 31787590 
1383.238 29968324 28301656 26754958 25281386 23830402 22359098 20850592 
1386.614 19327006 17844614 16470050 15251037 14200317 13302807 12533587 
1389.989 11870085 11295768 10798596 10365954 9982190 9629286 9289803 8952817 
1393.846 8617613 8294286 7999076 7745857 7541162 7384283 7272238 7204014 
1397.704 7178176 7189158 7224059 7262164 7283626 7279246 7253909 7220993 
1401.561 7194985 7185216 7191785 7207248 7219443 7219073 7206170 7190909 
1405.419 7187540 7206103 7246295 7299193 7352739 7399483 7439693 7480008 
1409.276 7528722 7589882 7659617 7728419 7785829 7828841 7864232 7905666 
1413.133 7965800 8048725 8147298 8245589 8327453 8384402 8421325 8457609 
1416.991 8522889 8644011 8834821 9082688 9351754 9601643 9811582 9984970 
1420.848 10136381 10277496 10412752 10542415 10670419 10810213 10986174 
1424.224 11222420 11531569 11905434 12321852 12757062 13199608 13657273 
1427.599 14154854 14727450 15406973 16207201 17115530 18097920 19114978 
1430.974 20137514 21152164 22155664 23148906 24130518 25100908 26069530 
1434.349 27061616 28125008 29322858 30708584 32273914 33927120 35531836 
1437.724 36987948 38279900 39457684 40593668 41756596 42992076 44317812 
1441.100 45722000 47174440 48636792 50075112 51470320 52816584 54117792 
1444.475 55383872 56629384 57875860 59152164 60492212 61923096 63450628 
1447.850 65053084 66689020 68322696 69948792 71594056 73304992 75122264 
1451.225 77059216 79083712 81124112 83100360 84941728 86621672 88155128 
1454.601 89580056 90931560 92212464 93367232 94281384 94858936 95116864 
1457.976 95172544 95151056 95101600 95016680 94871552 94654400 94368256 
1461.351 94023384 93621720 93145816 92549216 91762864 90709624 89339032 
1464.726 87656712 85709152 83543360 81170808 78559896 75680008 72532568 
1468.102 69170488 65669252 62115308 58566664 55007816 51367564 47538668 
1471.477 43461968 39230596 35143724 31577804 28747524 26615574 24979528 
1474.852 23611164 22360738 21161838 20018280 18964006 18027766 17210804 
1478.227 16489357 15829651 15202445 14591289 13994098 13417888 12874013 
1481.603 12372237 11917965 11513842 11162140 10863548 10616938 10414211 
1484.978 10239329 10069028 9879811 9655813 9395937 9114629 8835767 8583547 
1488.835 8371903 8201758 8064422 7952302 7861432 7790956 7737795 7693544 
1492.693 7646397 7583981 7496830 7381520 7241948 7090769 6942638 6809939 
1496.550 6693634 6583818 6467641 6341576 6214270 6102560 6020643 5973745 
1500.408 5956613 5957117 5961786 5961686 5953724 5939247 5920101 5894742 
1504.265 5854708 5782140 5648922 5424881 5103955 4743702 4454443 4305737 
1508.122 4276289 4304633 4345695 4376787 4390677 4386360 4363533 4321934 
1511.980 4262671 4190368 4113360 4042420 3988713 3959955 3958250 3977076 
1515.837 4002925 4018274 4012054 3987776 3960758 3946681 3953502 3977477 
1519.695 4003660 4005734 3952833 3826727 3639441 3431663 3243378 3095386 
1523.552 2988512 2915820 2871724 2853013 2856348 2874659 2896407 2908248 
1527.410 2901810 2877995 2845742 2817628 2803454 2806789 2823964 2845942 
1531.267 2860484 2857816 2834436 2797918 2764871 2752734 2765705 2792516 
1535.124 2815326 2819662 2797051 2742330 2650611 2514618 2326364 2080291 
1538.982 1788608 1500778 1299903 1256934 1373122 1587733 1821714 2017205 
1542.839 2146283 2202927 2200296 2164798 2127271 2109857 2119945 2152943 
1546.697 2198431 2247722 2296284 2343920 2392060 2440973 2486991 2523149 
1550.554 2542713 2542413 2523883 2491423 2450369 2405854 2362243 2322567 
1554.411 2288890 2262077 2241793 2226906 2215649 2205292 2191105 2169360 
1558.269 2141122 2119280 2122309 2150912 2189673 2225907 2255215 2278664 
1562.126 2300215 2324266 2354214 2390028 2426612 2454834 2463798 2448503 
1565.984 2411085 2361443 2311607 2274267 2258513 2268305 2299482 2341088 
1569.841 2380833 2412084 2436075 2457333 2478193 2497488 2510685 2512685 
1573.699 2500121 2473728 2440340 2411318 2399257 2409086 2432509 2453768 
1577.556 2462698 2458166 2445904 2432276 2422613 2418948 2421247 2429077 
1581.413 2443771 2468730 2508919 2568310 2646144 2735228 2823831 2897374 
1585.271 2943741 2957285 2939871 2898675 2843441 2784246 2729393 2685916 
1589.128 2659379 2653878 2670914 2708254 2759903 2816360 2866187 2901543 
1592.986 2918789 2921357 2917221 2917188 2929664 2958453 3002691 3057311 
1596.843 3116777 3176018 3231428 3279934 3318128 3342035 3348212 3335824 
1600.701 3307177 3267682 3223717 3180490 3140439 3104096 3071159 3042596 
1604.558 3021609 3012200 3016604 3033654 3056611 3075230 3078834 3060681 
1608.415 3021409 2968828 2913852 2865620 2827066 2795617 2765505 2731260 
1612.273 2691417 2648344 2608042 2576709 2558944 2556478 2566043 2579509 
1616.130 2584242 2568843 2527815 2464231 2385497 2299016 2210287 2122742 
1619.988 2040408 1966610 1904007 1854556 1817987 1790937 1768779 1747621 
1623.845 1726929 1708533 1694229 1684284 1676800 1668717 1657807 1644237 
1627.703 1631732 1625945 1631898 1650058 1677332 1708333 1737541 1761460 
1631.560 1779326 1791203 1797259 1795828 1781688 1747255 1686878 1604261 
1635.417 1519897 1466301 1466035 1515475 1592754 1674272 1744760 1796460 
1639.275 1828535 1843841 1847235 1844008 1837885 1831796 1827570 1827005 
1643.132 1831696 1842677 1858216 1872159 1872392 1840813 1761028 1632497 
1646.990 1480497 1344803 1253678 1211245 1205397 1220549 1245370 1275809 
1650.847 1314326 1370230 1457790 1585804 1735844 1850729 1883074 1846403 
1654.704 1783950 1727162 1686778 1662663 1648594 1637718 1623982 1604826 
1658.562 1581979 1561329 1549624 1552317 1570972 1602299 1638250 1667885 
1662.419 1682754 1679727 1663628 1641842 1621022 1603429 1587766 1570207 
1666.277 1546564 1512416 1464339 1401243 1326524 1250089 1186592 1151342 
1670.134 1151641 1183369 1234239 1290232 1340748 1378972 1402307 1411548 
1673.992 1409553 1400778 1390340 1381997 1375881 1369000 1357434 1337491 
1677.849 1305652 1259327 1196526 1118520 1030298 940201 858721 794186 752330 
1682.189 736199 747650 785589 843483 909088 971017 1027607 1084604 1146325 
1686.528 1211145 1272154 1317683 1335397 1315622 1256768 1166923 1063844 
1690.386 967995 895342 855269 850156 878642 938773 1029932 1151508 1298474 
1694.725 1456394 1593752 1670314 1661100 1573400 1436846 1278767 1115131 
1698.583 948901 779713 614441 473544 381639 346819 355673 386780 424223 
1702.922 458618 484457 498389 497394 480012 447407 404655 360051 321817 
1707.262 296717 288726 298706 323707 357033 389897 411620 414339 395236 
1711.601 357265 308189 258655 218872 196529 194706 211479 241945 281233 
1715.941 327620 383331 451321 530203 610559 680576 733842 772046 801721 
1720.281 829573 859419 890495 918684 936283 935984 913703 871470 816792 
1724.620 759698 709282 670023 643011 626154 616996 612649 611820 613910 
1728.960 617394 619982 618854 611986 599808 586338 579536 589788 627183 
1733.299 694116 777158 846305 875653 861809 818220 761690 704835 656550 
1737.639 621873 603425 600538 608137 617593 618953 605781 575455 528975 
1741.979 468104 395800 314788 228486 141637 59943 -9940 -60465 -84483 -75671 
1746.800 -31277 47052 149924 260743 360183 428866 454770 437191 387443 
1751.140 324437 269430 238166 236840 263694 312466 375438 444156 510763 
1755.480 568355 611222 638133 652236 661461 673507 693717 724051 764478 
1759.819 813141 867785 925491 980382 1024286 1048200 1044679 1010769 948668 
1764.159 864166 765241 661527 564108 483529 431685 417756 446777 516800 
1768.498 618788 739451 862539 971914 1049960 1078758 1047668 962781 854538 
1772.838 763349 721861 737560 799099 884053 970187 1039431 1080751 1092211 
1777.178 1078459 1048000 1007282 960590 909155 853642 796808 744364 702313 
1781.517 674137 658607 650278 641683 627083 604254 576019 548880 530402 
1785.857 525425 534018 552563 575455 597950 615834 627249 630700 625557 
1790.196 611488 590020 565833 545795 537269 542643 557407 572303 578972 
1794.536 573232 557008 537070 523137 523535 541648 573663 609231 635943 
1798.876 642612 624628 585873 538231 495802 469232 462665 473644 497195 
1803.215 529008 567691 613412 665908 722458 776427 818186 837906 826984 
1807.555 782269 705599 605183 492651 382701 291544 233690 219402 250665 
1811.894 319927 410028 499385 568786 602994 595694 549013 473279 383397 
1816.234 296286 227027 184695 172861 190529 233823 296883 372785 453278 
1820.574 528478 590020 631928 653530 659105 657014 657080 666505 687677 
1824.913 717414 750239 781539 810551 839499 870673 902115 927251 934025 
1829.253 911645 856663 779747 698961 631397 582953 547752 512222 462067 
1833.592 388040 290450 179457 73232 -8581 -53475 -58808 -32933 9277 50698 
1838.414 78302 86587 75618 49372 12922 -28262 -68085 -98297 -106777 -80044 
1843.236 -7388 111112 260843 413378 540420 623765 658474 650576 610326 
1847.576 549809 479946 410791 352059 310974 292340 297015 321817 358558 
1851.915 396298 422531 425848 399780 345858 272878 193976 125165 81053 72072 
1856.737 103092 171933 269595 382336 495503 596623 676859 733743 769789 
1861.077 791298 805804 817589 826486 827714 812709 773838 707656 617162 
1865.416 511625 404954 313295 250167 224607 237171 279244 333622 381540 
1869.756 410293 416097 403461 380445 356635 339922 335777 346919 372420 
1874.095 409099 451619 494973 534283 565369 585773 592973 585608 563345 
1878.435 528146 484424 439546 402931 382336 383264 406844 449762 506948 
1882.775 572967 644172 718144 794551 872134 948370 1018640 1077163 1117955 
1887.114 1136990 1132007 1104269 1056669 993931 919879 837242 746919 649116 
1891.454 544468 434538 323011 216187 124038 57590 28794 44799 104451 196363 
1896.276 301160 398155 468237 500612 493314 453278 393545 328482 269761 
1900.615 222485 185590 154398 124767 95436 70084 55337 59446 87747 142234 
1905.437 219866 313627 413510 507644 584778 635179 652999 637038 592841 
1909.776 532094 468337 415500 382070 369800 375338 394208 423427 464422 
1914.116 523302 607174 719870 859087 1011068 1151674 1251252 1279033 1219186 
1918.456 1076233 874657 644537 413709 201733 20444 -119464 -207435 -234426 
1922.795 -195744 -96276 49140 219667 394043 552696 679845 765175 802850 
1927.135 791365 734340 639294 518194 385188 257660 152343 83306 60175 85162 
1931.957 154564 257395 378290 497262 594168 653895 668131 640190 581692 
1936.296 511990 451420 414074 405252 419414 444256 466048 478885 483993 
1940.636 488869 501839 522009 536804 523933 461072 341481 180021 12458 
1944.975 -121088 -185577 -167559 -81071 37277 140577 189899 165436 73199 
1949.315 -61194 -201540 -317705 -391467 -416659 -396036 -332571 -226975 
1953.172 -77858 113068 336706 574128 800028 988817 1127356 1216495 1271556 
1957.512 1315356 1366607 1430363 1495226 1537487 1529273 1451640 1302129 
1961.370 1095831 862739 638597 455533 338629 302022 344200 450923 599377 
1965.709 760628 905967 1018109 1090816 1130911 1154598 1175860 1197124 
1969.567 1209750 1193536 1127921 1001038 818651 601368 383828 198385 64914 
1973.906 -9741 -31476 -8581 52984 154597 299237 484723 696505 902248 1056204 
1978.728 1117689 1056902 872765 590186 253715 -86139 -384946 -608477 -740808 
1983.068 -781425 -743752 -648942 -520621 -380146 -243566 -125891 -40024 1491 
1987.407 -12226 -88723 -232803 -446086 -723640 -1054964 -1416916 -1776124 
1991.265 -2087917 -2306883 -2397081 -2342675 -2151588 -1850662 -1481048 
1994.640 -1082530 -683150 -296912 76513 444787 806800 1146093 1426274 
1998.497 1599306 1626277 1493896 1227427 886311 556279 316180 215192 257163 
2002.837 400941 575986 713995 777257 766934 718608 680708 688839 743069 
2007.176 808925 832694 772278 617029 398686 172066 -397 -77195 -52182 51891 
2011.998 200341 365058 534913 716352 921241 1150279 1386651 1594616 1729357 
2016.338 1759364 1676134 1504336 1289833 1083807 921905 815332 752960 712336 
2020.677 672346 620148 556245 492750 448933 444057 495968 615237 799497 
2025.017 1030098 1270991 1475710 1597011 1605757 1496988 1302395 1077662 
2028.874 893217 811083 862108 1041092 1311269 1617996 1902443 2114884 
2032.732 2227306 2230836 2138658 1977428 1786978 1604527 1463508 1376978 
2036.589 1329847 1275543 1150279 897069 483927 -69410 -695059 -1279836 
2040.447 -1707482 -1890879 -1799652 -1464075 -962371 -389713 175645 673507 
2044.304 1072281 1356769 1515109 1534328 1404767 1130578 739153 287599 
2048.161 -149011 -505529 -740080 -849454 -863409 -827826 -784633 -758769 
2052.019 -755329 -762771 -765284 -747258 -701973 -626410 -519264 -377729 
2055.876 -196738 25348 282725 557440 820676 1039398 1180412 1222476 1158850 
2060.216 999743 768096 497958 229779 4075 -138875 -167294 -69277 143328 
2064.555 433443 747417 1024519 1221246 1317118 1320441 1259559 1170013 
2068.413 1081083 1006252 945547 892354 842819 802286 783564 801223 861112 
2072.752 953517 1053747 1127489 1145129 1091015 969821 802418 620579 452681 
2077.092 315716 213700 138920 78468 20908 -38201 -93858 -133807 -142287 
2081.432 -104459 -10934 137826 329709 541416 743501 901485 984566 972478 
2085.771 859186 654558 384657 86654 -201540 -443239 -609139 -682687 -658404 
2090.111 -543985 -357236 -125361 122944 358492 554786 692655 759134 749243 
2094.450 666405 522307 335578 130136 -66263 -228101 -336908 -385939 -383986 
2098.790 -352105 -319360 -310255 -338829 -402292 -484414 -558512 -600073 
2102.647 -594448 -539087 -442213 -317308 -175674 -23955 136169 303282 472615 
2106.987 631363 761026 843317 864764 822402 725445 592973 447938 311770 
2111.327 202728 131263 101832 111477 149692 198684 236343 242277 203291 
2115.666 121950 16534 -80044 -131224 -109427 -4307 173623 395170 622869 
2120.006 825888 984931 1096330 1167123 1206394 1217160 1194931 1129449 
2123.863 1013957 851052 656649 453775 268932 122016 21835 -32039 -45490 
2128.203 -25048 26607 108096 216419 342144 469431 578640 653165 688640 
2132.542 694049 691228 702346 743235 811381 888038 940965 937744 857460 
2136.882 696837 469531 205380 -57815 -282110 -432548 -482461 -420399 -251447 
2141.222 2418 305039 612881 889200 1111510 1277703 1402872 1505633 1594184 
2145.561 1657308 1660635 1562659 1337657 992570 575190 164077 -150667 
2149.419 -301779 -261150 -47975 283255 663817 1035778 1369599 1661366 
2153.276 1922244 2154974 2345885 2461465 2464464 2334592 2084720 1768813 
2157.134 1473116 1285513 1267967 1429167 1722903 2061981 2353981 2534647 
2160.991 2570943 2465964 2244857 1946307 1610580 1276341 978755 741011 
2164.848 581228 504593 504825 564573 661262 775465 892951 1010105 1127854 
2169.188 1247763 1364646 1463275 1519199 1511119 1423881 1260988 1047303 
2173.045 827548 655322 579768 633487 819050 1111012 1458089 1799821 2077495 
2177.385 2244558 2277598 2175320 1954994 1644537 1280129 898330 535146 
2181.242 227591 6792 -102504 -86670 52951 299038 621409 984400 1350786 
2185.582 1692666 1997166 2262377 2491990 2688417 2843374 2938070 2948578 
2189.439 2855715 2656045 2368339 2033151 1697223 1407625 1192871 1054776 
2193.297 969024 896803 797638 644603 435798 194275 -38036 -215847 -300885 
2197.636 -275918 -145699 63588 313925 567758 789838 957734 1061353 1100615 
2201.976 1082943 1019703 921805 797970 654824 498290 334185 171436 22896 
2206.316 -95084 -163055 -163419 -84881 74127 303514 580465 873894 1153734 
2210.655 1391204 1567248 1674671 1717016 1706803 1658373 1586635 1499050 
2214.513 1397686 1278534 1137057 972080 792194 613180 461537 364561 344001 
2218.852 408734 550406 742240 943820 1114600 1220549 1245703 1195795 1094237 
2223.192 977094 878276 823531 821141 863668 931534 1002367 1059925 1098290 
2227.531 1123602 1150345 1193503 1259892 1343839 1425344 1476773 1469193 
2231.389 1384889 1223639 1006286 768162 549942 387178 299038 282625 316180 
2235.729 366948 402102 398686 351263 271154 180684 103556 58750 51824 75618 
2240.550 113465 146278 157945 142665 104948 61202 33897 43971 107036 226430 
2245.372 390925 576848 755649 899758 991905 1031460 1032955 1021297 1021065 
2249.712 1049096 1106926 1181841 1250720 1290664 1288205 1243310 1168319 
2253.569 1084438 1012629 965471 945315 944219 949499 948602 933593 902647 
2257.909 859883 811614 765706 729860 711041 714725 744563 799929 874890 
2262.248 957667 1033652 1087394 1107890 1092011 1045742 982308 920278 879770 
2266.588 876118 919913 1013127 1148352 1308710 1469360 1602897 1680791 
2270.445 1684650 1608717 1464040 1274148 1070852 885315 738887 639692 583020 
2274.785 557307 549113 549245 555117 567924 588660 614872 639294 653331 
2279.125 651041 633089 607772 589158 591547 622670 682334 762254 850090 
2283.464 934124 1008046 1071616 1128054 1180412 1227128 1260955 1270991 
2287.322 1245536 1178518 1072347 939105 797074 665377 560625 490495 454405 
2291.661 443758 446677 451254 450293 442730 434604 436097 457623 507445 
2296.001 587831 693220 811680 927848 1026511 1095267 1129283 1130379 1107491 
2300.340 1073377 1042254 1025914 1030995 1058795 1104734 1160578 1215598 
2304.198 1261088 1291594 1305486 1305154 1294685 1277371 1253711 1221878 
2308.055 1179515 1126559 1069358 1020434 996455 1013957 1081581 1195297 
2311.913 1336394 1477970 1590094 1651022 1654049 1609183 1538717 1467464 
2315.770 1417664 1398916 1409354 1437610 1470157 1496223 1512515 1522424 
2319.627 1534594 1557804 1597077 1652186 1717681 1784084 1840880 1878915 
2323.485 1891693 1877018 1838617 1785148 1730122 1687843 1670679 1684583 
2327.342 1727062 1785315 1841346 1876818 1878815 1844607 1782786 1709464 
2331.200 1640811 1590094 1563257 1559433 1575195 1605924 1649559 1704242 
2335.057 1768081 1837253 1906003 1969639 2025927 2077495 2130001 2190439 
2338.915 2262243 2344020 2428544 2505620 2567410 2610375 2634743 2642843 
2342.772 2634009 2602408 2536680 2426312 2268438 2073999 1867135 1676434 
2346.629 1528376 1437245 1403404 1417299 1465004 1532333 1607088 1682554 
2350.487 1754673 1822812 1887500 1949369 2009283 2068606 2130267 2198298 
2354.344 2276566 2366407 2464164 2561411 2648177 2716256 2764605 2800386 
2358.202 2835870 2885599 2957719 3049270 3145779 3223383 3258668 3233431 
2362.059 3143777 3000256 2826632 2650711 2498455 2385031 2311274 2265108 
2365.917 2228138 2183146 2120145 2040841 1956059 1882009 1830631 1807008 
2369.774 1806176 1816058 1822479 1815658 1793599 1761627 1730322 1708500 
2373.631 1700915 1705672 1715419 1720641 1714088 1692101 1655413 1607054 
2377.489 1550355 1486914 1417532 1342643 1264411 1187422 1118486 1063944 
2381.346 1027840 1010138 1006485 1009374 1010769 1005223 990511 968526 
2385.204 943156 918717 897865 880899 866158 851783 836677 821307 807995 
2389.543 799431 797804 804178 818153 838337 863701 892918 925126 958797 
2393.883 991175 1018507 1036309 1041457 1033187 1014788 992968 975068 968028 
2398.222 974703 992570 1013957 1028604 1027408 1004891 962483 907461 851351 
2402.562 805140 776560 766934 772345 784825 796842 804875 810385 819149 
2406.902 838835 874624 926952 989946 1053448 1107225 1143468 1159880 1159481 
2411.241 1149548 1137655 1128386 1123204 1119583 1114135 1104103 1089586 
2415.099 1073576 1060257 1052949 1052119 1054544 1054477 1045974 1025050 
2418.956 992071 952222 913537 885083 874193 883290 909653 945946 982574 
2423.296 1010072 1023024 1020467 1006817 989680 976397 971681 975035 980515 
2427.635 978522 960025 919116 856530 779747 702379 639659 604653 605515 
2431.975 642977 711373 798900 892287 977559 1042786 1080219 1086796 1064575 
2436.314 1020500 966169 914766 878409 865793 879737 915629 963910 1012297 
2440.654 1049395 1067464 1064741 1044480 1013027 977559 943787 915065 892221 
2444.994 874624 861278 851484 845243 842919 844479 850521 860846 875853 
2449.333 896139 921639 952454 986957 1022825 1056238 1083441 1100416 1104103 
2453.673 1092377 1063910 1018673 958232 886577 810585 739485 684691 655853 
2458.012 659569 696638 761192 841591 922336 989215 1031228 1043450 1027408 
2462.352 989780 939968 887042 838404 797672 765507 740049 718973 700620 
2466.692 685288 675797 677224 695344 734573 796344 876882 967364 1054677 
2471.031 1125097 1167255 1176026 1153767 1110049 1058596 1011998 978622 
2474.889 959859 949565 937644 914434 874359 818651 755018 694846 650079 
2479.228 627879 629505 649846 680343 711606 737161 755782 770718 787912 
2483.568 813473 850621 898563 952520 1005721 1052352 1089653 1118387 1142272 
2487.907 1165926 1190977 1215266 1231381 1230019 1202706 1145495 1061818 
2491.765 962383 862573 777257 717580 686815 681438 692091 708519 723587 
2496.104 734340 742671 752695 768627 792062 822436 857128 893948 931401 
2500.444 969058 1005721 1038302 1061419 1068826 1055573 1021696 973640 
2504.302 923797 885979 871636 885249 923001 973640 1023124 1061419 1084006 
2508.641 1094303 1101146 1114201 1139282 1175694 1216728 1251850 1271024 
2512.499 1267967 1241482 1195895 1138518 1076599 1017445 966235 926288 
2516.356 899824 888403 891690 908358 936050 971150 1010869 1052584 1094536 
2520.696 1134665 1170445 1197755 1211910 1209384 1189781 1157255 1120878 
2524.553 1092809 1083607 1099817 1140644 1197955 1258297 1306583 1331243 
2528.410 1325593 1290498 1231713 1159182 1082013 1008511 944352 892453 
2532.268 854439 831731 825125 835482 863270 907826 967165 1037505 1113636 
2536.607 1188652 1255273 1306749 1337857 1346598 1335597 1311202 1283054 
2540.465 1262450 1258862 1277836 1319145 1376114 1437411 1488743 1518467 
2544.322 1519099 1490671 1440270 1381365 1328983 1295749 1288670 1307015 
2548.180 1342743 1383127 1415537 1431560 1429000 1412213 1391371 1377842 
2552.037 1380302 1403437 1445689 1500845 1559067 1610546 1646399 1660601 
2555.895 1651588 1621455 1576492 1525849 1479998 1448082 1435117 1440336 
2559.752 1456726 1473349 1477671 1461115 1421620 1365776 1305918 1258496 
2563.609 1238824 1255904 1311800 1400545 1511119 1629171 1740701 1834391 
2567.467 1901511 1937920 1943079 1920447 1876918 1822413 1768480 1725498 
2571.324 1701847 1701348 1723203 1762591 1811632 1862442 1907568 1942047 
2575.182 1963781 1973367 1973434 1968075 1961784 1958289 1959621 1965678 
2579.039 1974332 1982054 1986248 1985716 1982121 1979558 1983020 1997066 
2582.896 2024296 2064344 2114618 2171491 2230603 2288024 2340489 2383864 
2586.754 2414217 2427711 2422280 2398557 2361077 2317570 2276266 2244424 
2590.611 2225207 2217414 2216648 2218347 2219979 2222610 2230603 2248288 
2594.469 2277965 2317370 2359677 2395259 2416916 2421447 2411818 2396491 
2598.326 2386296 2389961 2411818 2450269 2499255 2550278 2595342 2629476 
2602.184 2650211 2657778 2653778 2640543 2620675 2596842 2572476 2551378 
2606.041 2536181 2528482 2527949 2532648 2539513 2546779 2554145 2563044 
2609.898 2575209 2591609 2610442 2627342 2635810 2630176 2608009 2572710 
2613.756 2531981 2497722 2482426 2494256 2535481 2600742 2679315 2756402 
2617.613 2818561 2856548 2866654 2851479 2817394 2773141 2726426 2682916 
2621.471 2645677 2615709 2592709 2576143 2565677 2560677 2560444 2563544 
2625.328 2568677 2574910 2582476 2592842 2608209 2630209 2659012 2692584 
2629.186 2726992 2757769 2781778 2798485 2810958 2824031 2843241 2871691 
2633.043 2908782 2949813 2987644 3014869 3026447 3021008 3001423 2972965 
2636.900 2941206 2910550 2882297 2855748 2828833 2799652 2768373 2737196 
2640.758 2709721 2690917 2684849 2694551 2721424 2765105 2823630 2894272 
2644.615 2972598 3053774 3131996 3201652 3257733 3297061 3318362 3323871 
2648.473 3317460 3304873 3291886 3283372 3281603 3286878 3296326 3306242 
2652.330 3312485 3312218 3304673 3291719 3276695 3263976 3257032 3257433 
2656.188 3264744 3276328 3289348 3301234 3311317 3320699 3332118 3348579 
2660.045 3372588 3404412 3442583 3484266 3526420 3566641 3604326 3639642 
2663.902 3674025 3707976 3740627 3769102 3789023 3796376 3788488 3765727 
2667.760 3731904 3694308 3661327 3640143 3635498 3647560 3671752 3700357 
2671.617 3725488 3740159 3741095 3729297 3709179 3687024 3668511 3657785 
2675.475 3656081 3662263 3673791 3687692 3701894 3715094 3726758 3736015 
2679.332 3741864 3743267 3739090 3729431 3715529 3699755 3684751 3672521 
2683.189 3664034 3658387 3653475 3646692 3636200 3621566 3603925 3585616 
2687.047 3569280 3556952 3549803 3547632 3549737 3555182 3562932 3572253 
2690.904 3582877 3593935 3604827 3614115 3620496 3622902 3621064 3615618 
2694.762 3607900 3599915 3593668 3590427 3590394 3593400 3598011 3602922 
2698.619 3607299 3610406 3612077 3612511 3611108 3606597 3597543 3581975 
2702.477 3558890 3528959 3495255 3462222 3435871 3421677 3422645 3439177 
2706.334 3467799 3503171 3538345 3567142 3586084 3594035 3593234 3587420 
2710.191 3581440 3579603 3585249 3600450 3626143 3662263 3707976 3761816 
2714.049 3821646 3884794 3948386 4009412 4065397 4114799 4156947 4192375 
2717.906 4221951 4247379 4270266 4292117 4314438 4338499 4365073 4394359 
2721.764 4425689 4457122 4486180 4509615 4524346 4528464 4521534 4504727 
2725.621 4481459 4456285 4433756 4417789 4410225 4410626 4416216 4422409 
2729.479 4424082 4416852 4397706 4365809 4322402 4270400 4212917 4153334 
2733.336 4094462 4038239 3986104 3939760 3900140 3868413 3845213 3829836 
2737.193 3820844 3815797 3811685 3805568 3795841 3781803 3764022 3743668 
2741.051 3721878 3699254 3675762 3651069 3624539 3596207 3567442 3539548 
2744.908 3515063 3496023 3483899 3479222 3481694 3489978 3502603 3518303 
2748.766 3535640 3553779 3571752 3588957 3604693 3618158 3628849 3636066 
2752.623 3639675 3639541 3635799 3628782 3619160 3607566 3595205 3583612 
2756.480 3574525 3569814 3571351 3580538 3597644 3622000 3651637 3683648 
2760.338 3714727 3742264 3764423 3781068 3793234 3803162 3813457 3825992 
2764.195 3841235 3858852 3877439 3895392 3911708 3926519 3940328 3954840 
2768.053 3971391 3990518 4012388 4036501 4062320 4089813 4119348 4151996 
2771.910 4188962 4230516 4276423 4325079 4374411 4421806 4465257 4503756 
2775.768 4537605 4568644 4599685 4634346 4675640 4725714 4784840 4851077 
2779.625 4920742 4988943 5050954 5103586 5146300 5180769 5211754 5244819 
2783.482 5285165 5336887 5402336 5481283 5572361 5672722 5778916 5886278 
2787.340 5990273 6086397 6170980 6242975 6304392 6360303 6417600 6483179 
2791.197 6561280 6652180 6751513 6852754 6949136 7036919 7116871 7194245 
2795.055 7276686 7371038 7480278 7602594 7731724 7858665 7976228 8080117 
2798.912 8170864 8252984 8333228 8418319 8512988 8619810 8739000 8869111 
2802.770 9008327 9154186 9304224 9455498 9605336 9751769 9893945 10033422 
2806.627 10173284 10317668 10470009 10632183 10803419 10981077 11161256 
2810.002 11341509 11521089 11702104 11888883 12086201 12298434 12527279 
2813.377 12771359 13026844 13288389 13550400 13808499 14060830 14308412 
2816.753 14554866 14806123 15069394 15351086 15656732 15989371 16349133 
2820.128 16733885 17139002 17559402 17990328 18428388 18872742 19324996 
2823.503 19789582 20272752 20781938 21324748 21907822 22536522 23213704 
2826.878 23940992 24718880 25548382 26431688 27373394 28380138 29460882 
2830.254 30624776 31879682 33232074 34685940 36243040 37904220 39671200 
2833.629 41547956 43541700 45662552 47923628 50338940 52921104 55679752 
2837.004 58618648 61735060 65018980 68455336 72024256 75704344 79476280 
2840.379 83322808 87230968 91192480 95202256 99257560 103356976 107498040 
2843.755 111676152 115884064 120110656 124341448 128558456 132738840 
2846.648 136856416 140877776 144760816 148456560 151904832 155039344 
2849.541 157793856 160101488 161907456 163169136 163860544 163972992 
2852.434 163516480 162518864 161021568 159081888 156766288 154142432 
2855.327 151280880 148244688 145087728 141859056 138597840 135340400 
2858.220 132121712 128972408 125922832 123000880 120227976 117624032 
2861.113 115204264 112980224 110961696 109155496 107564168 106185792 
2864.006 105012768 104031136 103221168 102561392 102027448 101594368 
2866.899 101238984 100936344 100660784 100385688 100079976 99712568 99253016 
2870.274 98672304 97948928 97069296 96030328 94839976 93517784 92092960 
2873.650 90599400 89076752 87563880 86095800 84704672 83415544 82247176 
2877.025 81214064 80325464 79587576 79005088 78581736 78320072 78221912 
2880.400 78287256 78513728 78895528 79424680 80090440 80881992 81789888 
2883.775 82806448 83927640 85151456 86476776 87901224 89419712 91023480 
2887.151 92700752 94436944 96217904 98030896 99865080 101713288 103570064 
2890.526 105431400 107294840 109157672 111017144 112870728 114714272 
2893.419 116542920 118350752 120132104 121883152 123603896 125299248 
2896.312 126977680 128649784 130324424 132005808 133692696 135379872 
2899.205 137061120 138733776 140401088 142072464 143761840 145482416 
2902.098 147243328 149047760 150893648 152775904 154690384 156636384 
2904.991 158617040 160638544 162707584 164830592 167011776 169254272 
2907.884 171560544 173932224 176370448 178874544 181442176 184070208 
2910.777 186755472 189497328 192296832 195155984 198073552 201041296 
2913.670 204041872 207049328 210030128 212951424 215782384 218495808 
2916.563 221067520 223470544 225669360 227621856 229274560 230570560 
2919.457 231457632 231889280 231833408 231273536 230209120 228654208 
2922.350 226637504 224200048 221386528 218246032 214824320 211159984 
2925.243 207287904 203239568 199045408 194740208 190359696 185939024 
2928.136 181511312 177101536 172728816 168406736 164145760 159956080 
2931.029 155848064 151830576 147910128 144088976 140366240 136739776 
2933.922 133209184 129778160 126455696 123253320 120183400 117256632 
2936.815 114478344 111851224 109375600 107051680 104881928 102870496 
2939.708 101022096 99341016 97828592 96483160 95301560 94280112 93416368 
2943.083 92710224 92163296 91777672 91554008 91490440 91582112 91820248 
2946.458 92194264 92689352 93288160 93969360 94706072 95469832 96229848 
2949.834 96955576 97621696 98205408 98687808 99052600 99282960 99362840 
2953.209 99276920 99012816 98564472 97933072 97127712 96163152 95058712 
2956.584 93834784 92509320 91098392 89613944 88063648 86452192 84781320 
2959.959 83051096 81260640 79409600 77498672 75529760 73506384 71432752 
2963.335 69314632 67159056 64975500 62775328 60572316 58381704 56217960 
2966.710 54093172 52016296 49991868 48021208 46103692 44239368 42429408 
2970.085 40677132 38986992 37363340 35808232 34321028 32898154 31534438 
2973.460 30225464 28968556 27764262 26615646 25527156 24501334 23538960 
2976.836 22637008 21790294 20991824 20234564 19513106 18823086 18161520 
2980.211 17526248 16915570 16329110 15766563 15229588 14720080 14239998 
2983.586 13790234 13369570 12974199 12599516 12240458 11893616 11558178 
2986.961 11236191 10931466 10648584 10390693 10158834 9950931 9761934 
2990.337 9585147 9413273 9239538 9059411 8871207 8676426 8479266 8285438 
2994.194 8100945 7930164 7774764 7634089 7505898 7387148 7275271 7168744 
2998.052 7066285 6966408 6866825 6763932 6654502 6536557 6411144 6282305 
3001.909 6156697 6041743 5942370 5860417 5793523 5736476 5682693 5627506 
3005.766 5568467 5506047 5442328 5379456 5318606 5259374 5200586 5141807 
3009.624 5083404 5027355 4975838 4929891 4888471 4847927 4802931 4747756 
3013.481 4678621 4594662 4498734 4396166 4294092 4199434 4116638 4048473 
3017.339 3994732 3952799 3918996 3889642 3861493 3832310 3802092 3771676 
3021.196 3742799 3717267 3695679 3677132 3659188 3637871 3609537 3571251 
3025.053 3522445 3464293 3401273 3339330 3284307 3241776 3215538 3206592 
3028.911 3213269 3231528 3256064 3280635 3299798 3310182 3310182 3300900 
3032.768 3284541 3263809 3240140 3213869 3183761 3148282 3105965 3056777 
3036.626 3002324 2945509 2889602 2837338 2790148 2747365 2707121 2666980 
3040.483 2625042 2580576 2534847 2490323 2450236 2417715 2394159 2379733 
3044.341 2372737 2370638 2370338 2369739 2367906 2364908 2362076 2360277 
3048.198 2360077 2361110 2361576 2359111 2351815 2337824 2317303 2290922 
3052.055 2260545 2227838 2194535 2161867 2130301 2100234 2071968 2046367 
3055.913 2024762 2008650 1999397 1997566 2002992 2014210 2028590 2043138 
3059.770 2054457 2059783 2057453 2047466 2031220 2011147 1990809 1973500 
3063.628 1961884 1957490 1960153 1967908 1977128 1982986 1980623 1965745 
3067.485 1936689 1894755 1844873 1793832 1749750 1718645 1702645 1699019 
3071.343 1701115 1699751 1687078 1658872 1615901 1563557 1509390 1460782 
3075.200 1421454 1391936 1369798 1351850 1336461 1324563 1318614 1321405 
3079.057 1332606 1348061 1360325 1360923 1343707 1307912 1258729 1205829 
3082.915 1161076 1133768 1128253 1142903 1171973 1206494 1238326 1262251 
3086.772 1276274 1281824 1281891 1280661 1281126 1285347 1294087 1305386 
3090.630 1316121 1321970 1318381 1302030 1272253 1231614 1185994 1143036 
3094.487 1110049 1092277 1090782 1102707 1121975 1142571 1158784 1167554 
3098.344 1168152 1161275 1147621 1127954 1102209 1070819 1035346 999145 
3102.202 966733 943289 933128 937943 955974 983005 1012861 1039166 1056869 
3106.542 1063877 1061187 1052352 1042221 1035678 1035711 1042919 1055341 
3110.399 1070022 1083242 1092975 1098788 1102110 1104468 1106561 1107358 
3114.256 1103339 1090583 1065438 1027441 979386 928214 880999 845110 824228 
3118.596 817821 821739 830503 839765 846936 853376 861776 874724 893715 
3122.936 915696 935685 947141 944186 923930 887706 840661 790867 746554 
3127.275 715555 701516 705167 722691 748214 774037 792925 799464 791398 
3131.615 769988 739451 707291 680941 666770 668496 686317 716584 752827 
3135.954 788178 815664 830868 832893 823930 809356 795049 787448 790269 
3140.294 804344 827880 856530 885348 909852 927616 937876 941562 940068 
3144.634 934755 926653 916194 905071 895475 890959 895707 912907 943389 
3148.973 984898 1032490 1078559 1115264 1136890 1140312 1126061 1097525 
3152.831 1060223 1019537 980349 945912 917821 896106 880235 869146 862274 
3157.170 859551 861211 867885 879339 895010 912608 929509 942459 948834 
3161.510 947340 938042 922403 902414 879737 855501 830536 805904 783796 
3165.849 767631 761623 769125 790800 823764 861709 896537 920045 928645 
3170.189 922635 908059 892752 885448 891092 910317 938773 969954 996190 
3174.529 1011367 1012264 997518 967929 925126 871271 809655 745028 683629 
3178.868 632226 596888 581593 586338 607606 638830 672843 702844 724715 
3183.208 736995 740779 738954 734241 729561 726806 726773 729926 736232 
3187.547 745028 755516 766835 777855 787315 794186 797340 795281 787514 
3191.887 773938 755151 734373 715754 703574 701881 711473 730756 753790 
3196.227 773606 783464 778950 759599 728797 692589 657147 627315 605781 
3200.566 592874 587565 587631 591148 594964 596026 590385 574592 546923 
3204.906 508872 465816 425118 395369 382833 389599 413079 447042 484424 
3209.245 519023 547620 570113 587532 600771 609099 610028 601301 582356 
3213.585 556179 528079 504493 489997 485154 486182 486613 481107 467142 
3217.925 447108 427606 416827 420674 440508 472284 508407 540420 562516 
3222.264 573365 575820 575123 575322 579105 585143 589490 587831 576882 
3226.604 555582 525459 489533 451719 414870 381142 351959 327686 309283 
3230.943 297513 293169 295755 304376 316843 330107 341812 350235 355010 
3235.283 356867 357696 359056 362206 366948 372188 376532 378820 378787 
3239.623 378224 379782 386249 399183 418187 439745 459049 470658 470459 
3243.962 458054 436030 409464 384226 364329 351197 342906 336109 327951 
3248.302 317341 306432 298474 296982 303613 316479 331035 341812 343735 
3252.641 334650 316412 293633 273010 260345 259682 272049 296219 328515 
3256.981 364925 400576 430790 451752 460641 456628 441437 419745 397525 
3261.321 381507 376499 384425 403163 426943 448535 461039 459646 443460 
3265.660 414804 378257 339458 303448 273972 253483 242973 242509 251162 
3270.000 266976 287101 307924 325697 336971 340187 335843 326526 316744 
3274.339 310809 311770 320524 335678 353783 370198 381407 384790 379517 
3278.679 366385 347151 323674 298341 273475 251891 236608 230839 236575 
3283.019 254510 282194 314688 345659 368640 379484 376864 363135 342774 
3287.358 321618 304277 292771 286704 283819 281167 276061 267739 256997 
3291.698 245758 236376 230574 229281 232298 238100 244598 248907 248742 
3296.037 242708 231105 216584 203159 195733 198319 212275 235613 263926 
3300.377 291246 312765 326426 333953 339657 348411 364196 387277 414903 
3304.717 441702 462200 472516 471255 459580 440641 418618 396862 378655 
3309.056 366152 360714 362471 370032 379616 386017 383894 369203 341149 
3313.396 302552 260113 221159 191457 173027 163580 157481 148598 132523 
3317.735 109356 83141 61467 52255 62064 93414 144654 209523 279675 345228 
3322.557 397127 428634 437291 424654 396231 360316 325597 298772 282857 
3326.897 277553 279542 285112 292042 300596 312765 330306 353186 378124 
3331.236 400211 413643 416064 409099 398553 392285 396298 412648 437423 
3335.576 462864 479714 481505 466678 438385 402566 365522 331168 300961 
3339.916 273839 250366 231204 220032 220430 235116 263462 301757 343835 
3344.255 383264 416495 441735 460210 474009 484457 491556 493513 488338 
3348.595 474772 453112 425583 394772 363665 334384 307957 285046 266147 
3352.934 251261 240454 232862 226928 220463 212573 203457 195468 191855 
3357.274 196363 210750 234453 264092 294296 319993 336772 342243 336341 
3361.614 320424 296816 268568 239293 213104 194871 189766 200706 228453 
3365.953 270259 320292 370099 412117 439679 449264 440010 414107 375007 
3370.293 327255 275994 226099 181877 147338 124933 115653 118636 132059 
3374.632 152774 177999 204717 230044 251659 267573 276591 279774 279277 
3378.972 278912 282625 292208 306598 321850 331201 328217 309582 276193 
3383.312 233492 189369 152343 127385 115321 113001 115586 118702 120657 
3387.651 122712 127849 138654 155857 177469 199976 219038 231403 235149 
3391.991 230641 219402 202695 182043 159072 134975 112272 93481 81351 77209 
3396.813 80688 89172 99347 107798 112736 113863 113300 113200 116382 123872 
3401.634 135506 149559 163282 172994 176242 171204 158243 139549 119133 
3405.974 101998 92586 93448 104219 122348 143063 161790 176076 184628 189302 
3410.796 191225 191358 188606 180916 166663 146543 124734 107997 103688 
3415.135 116846 147935 191324 237735 276856 300895 307062 298143 281233 
3419.475 265484 257362 260014 271187 285643 295822 295755 281962 254212 
3423.814 215258 170276 125795 88344 63456 55204 64549 90133 127419 171071 
3428.636 214827 253748 284151 304011 312201 308554 293865 269397 237503 
3432.976 201634 165536 133086 106837 88145 76844 71542 71542 76181 84765 
3437.798 96861 111079 125264 136633 142864 142831 137726 130368 123972 
3442.137 121254 123309 129308 137826 148134 160431 176574 198352 225734 
3446.477 255903 283786 302022 304774 290583 261638 222784 180253 138820 
3450.816 101236 67399 36780 8913 -14148 -28891 -30813 -17295 11298 50598 
3455.638 92718 129308 153570 162818 159271 149195 140113 138754 148333 
3459.978 167624 192021 214198 227392 226530 210054 179689 140212 97922 58684 
3464.800 27932 9874 6693 19052 45627 82809 125430 166994 200971 222320 
3469.621 229281 222949 207965 190562 177336 172894 178297 190960 206275 
3473.961 218275 222585 217148 203059 183634 162320 142334 125993 113697 
3478.301 106141 103622 106439 115089 129275 147239 166762 184529 197590 
3482.640 203888 202993 195965 184728 171966 160564 152841 150554 154133 
3486.980 161989 169546 171137 161160 135671 95171 44335 -7455 -49499 -72988 
3491.802 -72723 -49135 -7720 42579 92851 135705 167259 187744 198916 203755 
3496.623 204485 201733 194871 183203 166331 144389 119033 92884 68824 50930 
3501.445 42479 45561 59479 80291 101468 115553 117409 105544 83373 57524 
3506.267 35388 22432 20344 26242 33334 34858 26077 7753 -14545 -31873 -37274 
3511.571 -27765 -6162 19748 40889 48809 38801 11630 -27400 -70139 -107672 
3516.393 -131952 -138378 -125725 -96740 -57583 -16268 19085 42943 53282 
3520.732 52454 46820 44534 52454 73762 105080 139350 166530 178993 173922 
3525.554 154034 125032 94077 66074 42181 19814 -5135 -35816 -72623 -112376 
3530.376 -150369 -181006 -200050 -205680 -197632 -176833 -144672 -102902 
3534.233 -53640 -1457 47914 86952 108461 107964 85759 46688 -1259 -48869 
3539.055 -87796 -113038 -122015 -114827 -94222 -63877 -27765 10470 47251 
3543.395 80191 107036 126060 135804 135108 123044 99744 66306 25779 -17229 
3548.216 -57218 -88260 -105817 -106479 -89253 -54866 -6825 49538 107599 
3552.556 160696 203457 231933 244100 239227 218839 185954 145847 105975 
3556.896 74624 57855 59247 77209 106075 135771 157448 163646 152973 129076 
3561.717 100043 75088 61368 62793 78534 104086 131429 151913 157812 145515 
3566.539 117343 82047 50664 30550 23592 26574 34427 42247 46489 45362 37741 
3571.843 23890 3777 -21702 -50592 -79978 -105121 -120988 -122876 -108500 
3576.183 -79713 -42707 -6096 20609 29887 18820 -9873 -47975 -85477 -111746 
3581.004 -120359 -109626 -83025 -47014 -9111 23857 47980 61600 65477 61368 
3585.826 51195 36283 17627 -3876 -26506 -47047 -62685 -70669 -70337 -62420 
3590.648 -49168 -34060 -21139 -13982 -14446 -21536 -31012 -35717 -28262 
3594.988 -3942 37476 91890 152609 212010 264755 307029 337535 355872 362206 
3599.809 356635 339425 311339 274635 232398 188772 147604 112106 84433 66041 
3604.631 57955 61733 78634 110085 156155 213700 275928 332826 373813 391323 
3609.453 383695 354247 310444 261008 215457 183667 173325 188175 225436 
3613.792 276459 328217 368938 392020 395137 380545 353816 322447 292639 
3618.132 268601 250167 233193 212606 185921 154796 124071 98452 80887 71542 
3622.954 68725 69719 71774 73961 76844 81948 91061 105113 122845 142102 
3627.776 159238 172629 184496 200540 224839 257958 296352 335479 371558 
3632.115 401604 423560 435997 438087 429065 408138 375239 330505 275994 
3636.455 216087 157249 107765 74955 63622 73563 101368 139748 181247 219833 
3641.277 251096 273508 287963 296750 302884 309184 317672 329643 344763 
3645.616 361477 377129 387675 389632 381507 365456 346952 331400 320822 
3649.956 313163 303680 289223 269728 247847 226497 207965 193048 181281 
3654.295 171104 160431 146576 127452 101965 69918 31909 -12126 -61757 
3658.635 -115390 -169513 -219093 -256646 -275389 -270488 -240983 -189849 
3662.492 -124036 -52448 16335 74557 116846 141008 147438 138721 119365 95469 
3667.314 73961 61037 61567 75618 96894 113797 116448 103721 84201 69355 
3672.136 70349 93878 142433 213137 295424 367413 400211 376897 308421 225668 
3676.958 154465 106240 79230 66538 59545 51062 38105 21073 3280 -10602 
3681.780 -16500 -11994 3180 27767 58518 91459 122679 148896 168353 180618 
3686.601 187081 190562 194871 203059 214894 225767 226994 210651 174088 
3690.941 120492 57988 -3876 -56688 -95514 -118868 -127447 -122777 -106280 
3695.281 -78785 -41978 1557 46588 86587 113797 122314 110018 79330 38172 
3700.102 -1921 -27036 -27699 -3048 36150 73895 94740 90432 62561 19516 
3704.924 -27135 -66163 -88922 -92467 -78023 -50824 -17759 16004 48444 80092 
3709.746 114758 155028 200440 245227 281299 301790 304509 292440 271021 
3714.085 245692 219833 194639 169414 143096 113764 80589 43772 5036 -32602 
3718.907 -65070 -87431 -95150 -83721 -50228 5732 80490 166132 252389 328184 
3723.729 384823 416926 422996 404722 367479 319794 271618 231502 205015 
3728.069 192617 191457 195866 199612 195733 178297 144156 95105 38039 -14744 
3732.890 -49797 -57682 -34723 13916 76380 133981 170176 177568 160696 130832 
3737.712 99479 75088 63091 64218 77606 99943 126225 150951 169977 179060 
3742.534 175248 156122 121751 76745 31776 -994 -14346 -6229 23128 73762 
3747.356 147040 242144 354679 470161 565469 614773 599808 523568 409862 
3751.695 292771 199347 139914 109356 95502 84632 67167 39365 2418 -38400 
3756.517 -75671 -101411 -110885 -103531 -83390 -57053 -30912 -9310 7090 
3760.857 19814 31379 43739 57922 74259 92122 110814 129407 146841 162884 
3765.678 178430 195070 215258 241713 275895 317672 364959 411885 450458 
3770.018 473909 477690 462665 432581 391887 344266 292473 238929 186352 
3774.358 138820 100772 76678 69587 79992 105644 141240 179557 212507 232829 
3779.179 237636 228320 211081 191921 175413 162420 151183 138754 122082 
3783.519 99943 73596 46522 24321 12392 13982 29722 57458 93348 131860 167524 
3788.823 195369 212175 217247 212341 202231 192750 189766 197722 218010 
3793.163 248974 286670 325431 358525 379716 384922 373912 350964 324006 
3797.502 301657 289953 292539 310676 343371 387310 434704 473179 488969 
3801.842 474871 435367 383596 331897 289356 261075 249040 252952 268767 
3806.181 288593 300497 293998 265982 221491 170375 123110 88344 71310 73795 
3811.003 93680 125728 162155 194706 217148 225535 219137 200009 173425 
3815.343 146808 127452 119829 123806 136268 154166 176308 201998 230375 
3819.682 258224 278415 281564 262500 225436 182408 146112 124867 120956 
3824.022 133318 157746 188242 217148 236807 242343 233127 213568 190661 
3828.362 172264 164077 170077 191556 227425 272911 319463 357331 376764 
3832.701 371757 341580 290981 227922 162917 107400 70978 60142 76745 117078 
3837.523 172298 231005 282526 318866 336606 335810 319264 291047 255671 
3841.863 219104 187612 167259 162586 174982 201568 236674 274635 309748 
3846.202 338927 361012 376400 385984 391622 395767 401140 411819 432150 
3850.542 466313 516999 582124 652634 706860 719272 677124 596291 507379 
3854.881 434969 388106 363964 355541 354944 357066 359023 361112 364594 
3859.221 371923 383298 396961 408635 412781 404423 381374 345195 301690 
3863.561 259218 225469 205910 202065 211347 229447 253118 280835 312699 
3867.900 349141 389035 428037 459381 474838 471720 453543 428236 402367 
3872.240 380644 364494 353551 345161 335313 320027 296949 265882 228585 
3876.579 188739 150719 119497 100772 99347 117476 152841 197689 240818 
3880.919 272646 290318 297479 300994 306763 317672 331864 343503 343437 
3885.259 324105 285212 234751 184628 144223 116780 100175 88808 75452 53978 
3890.080 21703 -16964 -51155 -65732 -49797 -1557 70415 152277 229812 291445 
3894.902 330969 346985 342641 323840 298540 274834 259384 256334 266048 
3899.242 285344 307924 327089 337501 336540 324768 305437 283885 266313 
3903.581 258489 263296 279442 301823 323342 337767 341116 332262 313262 
3907.921 288395 262799 243073 234055 238962 257759 287400 322613 356171 
3912.260 382402 397724 402168 398055 389798 382535 379152 380479 383629 
3916.600 383331 373083 349306 311472 263429 211148 161989 121652 93746 78866 
3921.422 75452 81351 93912 111079 131230 152377 172264 188739 200242 206871 
3926.244 210186 212507 215822 221093 227789 234022 236575 232165 219203 
3930.583 197954 171436 144123 121420 107930 106240 116647 137859 168022 
3934.923 204551 245128 286306 324304 354844 373481 377361 365754 340652 
3939.262 306365 268302 232696 204949 189302 187645 199313 220231 245029 
3943.602 267573 283985 292473 294694 293865 294164 299204 311704 331765 
3947.942 356370 380014 396430 399747 386945 358724 318866 273673 230607 
3952.281 196927 178032 176574 191987 220463 255306 288892 314191 326194 
3956.621 322779 305470 278415 246686 215490 188606 168320 155161 149261 
3960.960 150222 157580 170706 188639 209954 232762 255008 275165 292075 
3965.300 305106 314158 318733 318866 314821 306598 295755 284283 274403 
3969.640 268634 267938 272182 279741 288063 294329 296916 294893 289290 
3973.979 281664 274105 268170 264987 264158 264788 265319 263926 259384 
3978.319 250598 238365 224508 212374 205943 208894 223314 248642 281962 
3982.658 317705 350401 374708 388372 391522 386116 376068 364030 352225 
3986.998 341016 330007 318137 305371 292241 280503 271618 267142 267341 
3991.338 271949 280006 290417 302353 314788 326459 336042 341215 340419 
3995.677 332959 319662 303017 287035 276094 273375 280603 296418 317440 
4000.017 339193 356701 
##END=
