##TITLE=mc_1 01 12:51:26 2026 (GMT+02:00)
##JCAMP-DX=5.01  $$ Nicolet v. 970
##DATATYPE=INFRARED SPECTRUM
##ORIGIN=Vojna akademija
##OWNER=Nicolet
##LONGDATE=2026/09/01
##TIME=12:51:55
##SPECTROMETER/DATA SYSTEM=Nicolet iS20
##DATA PROCESSING=
Ratio against background
%Transmittance->Absorbance
Truncated
ElementMultiply or ElementDivide
##COMMENTS=
Number of sample scans: 8
Collection length: 11,90 sec
Sample gain: 8,0
Background collected on: Tue Sep 01 12:38:26 2026 (GMT+02:00);
Number of background scans: 8
Background gain: 8,0
Sample spacing:  1,000
Number of scan points: 12415
Resolution points: 8286
Number of FFT points: 65536
Apodization: N-B strong;
Phase correction: Mertz;
Laser frequency: 15798,00 cm-1
Number of rejected sample scans: 0
Number of rejected background scans: 0
Bench serial number: BER2010005;
##RESOLUTION= 4,000
##XUNITS=1/CM
##YUNITS=ABSORBANCE
##FIRSTX=400.156891
##LASTX=4000.123047
##FIRSTY=-0.004929
##MAXX=4000.123047
##MINX=400.156891
##MAXY=0.177888
##MINY=-0.014037
##XFACTOR=1.000000
##YFACTOR=1.000000E-009
##NPOINTS=7468
##DELTAX=0.482117
##ZPD=6100
##XYDATA=(X++(Y..Y))
400.157 -4928679 -4081725 -2524454 -755262 734340 1622586 1836022 1510986 
404.014 940533 460276 369137 799530 1680791 2752801 3690933 4199267 4096736 
408.353 3366577 2157239 754819 -510990 -1334607 -1556165 -1198261 -463827 
412.210 329013 816493 678186 -239493 -1898401 -4087962 -6536026 -8951348 
416.067 -11088833 -12759851 -13791625 -14036949 -13397953 -11925275 -9871533 
419.442 -7621193 -5496991 -3644978 -2081421 -795415 200971 859551 1131010 
423.298 1010038 577910 11199 -471440 -670975 -496825 22730 764478 1574830 
427.638 2307244 2870990 3251390 3487305 3637503 3734979 3753695 3611910 
431.494 3208061 2467597 1397819 99877 -1247261 -2445089 -3297934 -3669620 
435.351 -3522470 -2931985 -2067505 -1128932 -292243 349771 783564 1049329 
439.208 1207457 1314559 1408058 1500845 1585937 1643239 1652818 1599871 
443.065 1481561 1308178 1098123 868549 632027 397691 169911 -39030 -206574 
447.404 -302143 -285488 -121584 208164 701749 1333237 2051527 2778710 
451.261 3427555 3910069 4162199 4163704 3933841 3516566 2952615 2268172 
455.118 1475610 587698 -351840 -1250928 -1964012 -2323164 -2223589 -1684543 
458.975 -852629 75021 911811 1526447 1854689 1876985 1617165 1126858 480742 
463.314 -245321 -982240 -1663287 -2224677 -2591452 -2681295 -2430295 
466.689 -1815820 -887978 243106 1424579 2521550 3457179 4219475 4848731 
470.546 5403845 5918992 6368675 6660289 6664226 6286843 5520678 4463114 
474.403 3267515 2101600 1091978 311173 -206210 -456446 -451316 -209621 
478.260 242277 854804 1544735 2200330 2676281 2834336 2589475 1943212 
482.117 1006950 -26340 -924912 -1509049 -1695930 -1529025 -1148628 -744942 
485.974 -476404 -411296 -525055 -725327 -904511 -974173 -900774 -706009 
489.831 -452110 -206376 -19515 90133 135903 149062 160961 192617 255870 
494.170 359487 516900 747749 1066900 1471620 1925040 2356446 2672081 2778043 
498.509 2615575 2173322 1500080 692655 -101941 -726320 -1055790 -1036255 
502.366 -715271 -230617 230276 506483 490992 161691 -422717 -1134616 
506.223 -1809221 -2292908 -2469371 -2304872 -1848320 -1214617 -534057 81219 
510.079 560459 887075 1085899 1207922 1302761 1406761 1529806 1660701 
513.936 1775533 1854223 1887168 1879314 1845838 1801884 1754141 1694662 
517.793 1606256 1473549 1297776 1103505 934058 836445 848297 979850 1212807 
522.132 1504702 1804545 2064577 2251918 2355646 2385564 2364275 2314172 
525.989 2251052 2177685 2088149 1977761 1851129 1724833 1625479 1579918 
529.846 1608617 1715519 1884938 2079326 2249687 2350016 2344919 2221577 
533.703 1993238 1698653 1391537 1130346 962881 909719 960922 1078426 1213571 
538.042 1319511 1373056 1384656 1399515 1480863 1688874 2059417 2584409 
541.899 3208729 3839296 4378360 4742128 4886561 4816064 4576814 4239985 
545.756 3876704 3545160 3270219 3047301 2851579 2655512 2442672 2216615 
549.613 1998564 1823211 1726796 1733715 1855255 2086650 2409286 2791816 
553.470 3194509 3568879 3860858 4023257 4020147 3836354 3482429 2995785 
557.327 2436208 1873357 1380534 1018142 823764 812145 972412 1272187 1657175 
561.666 2061847 2412051 2637043 2687550 2543046 2223509 1784682 1315523 
565.523 913438 657578 593371 712966 958099 1232278 1436912 1492965 1371094 
569.862 1099519 757375 447606 262733 266214 468171 827980 1261188 1670746 
574.201 1969140 2102998 2071003 1924175 1751779 1644171 1670014 1847635 
578.058 2144752 2490223 2802320 3010632 3072160 2984542 2780277 2512085 
581.915 2228704 1964613 1735412 1546531 1403902 1322402 1323300 1425543 
585.772 1631299 1918883 2239062 2531648 2736162 2809323 2737495 2537947 
589.629 2251618 1928834 1622453 1374518 1210448 1138452 1148352 1214103 
593.486 1296480 1353777 1345668 1243410 1040162 754288 427805 113068 -136755 
597.825 -287276 -327803 -269594 -138246 39464 243537 466778 709813 971781 
602.164 1241150 1490106 1679527 1771042 1737973 1579785 1323067 1017644 
606.021 718011 471388 306365 227027 217247 248841 295225 335711 360913 
610.360 371591 372486 367844 359454 345427 323376 294131 262500 238067 
614.699 233127 257693 315716 404556 514777 636274 760428 884817 1012928 
619.038 1150810 1301166 1460250 1614238 1744028 1827304 1846936 1797957 
622.895 1688442 1538052 1371726 1213538 1076831 961520 854970 737029 588328 
627.234 398553 172264 -67853 -285521 -440459 -494409 -426093 -238863 37211 
631.573 354446 657147 897367 1050724 1119782 1133535 1132705 1156325 1223606 
635.912 1326623 1431560 1494062 1475676 1356935 1146226 878376 603292 368076 
640.251 209689 145681 174386 280802 443792 641882 852911 1055341 1225998 
644.590 1338854 1372092 1312066 1159548 931700 661660 391423 160663 3081 
648.929 -65501 -45722 45859 185192 347615 513019 669890 814734 948370 
653.268 1072546 1185562 1279963 1345003 1369000 1345933 1280329 1189316 
657.125 1098290 1034416 1019138 1059160 1146192 1260457 1382396 1498052 
660.982 1607986 1723469 1859647 2024429 2210154 2393393 2544379 2636410 
664.839 2655611 2604075 2498255 2365508 2236631 2141289 2090646 2065576 
668.696 2023031 1933227 1795229 1628439 1455662 1296214 1163900 1067265 
672.553 1011201 998514 1030995 1110780 1239190 1414307 1625911 1853092 
676.410 2064178 2220878 2292087 2261844 2137593 1948537 1743429 1575794 
680.267 1485850 1490405 1573699 1692666 1789207 1814627 1744627 1593785 
684.124 1411149 1269628 1240452 1364713 1641510 2022831 2431343 2772908 
687.981 2972498 2996452 2858016 2610542 2326697 2076463 1903441 1823078 
691.838 1824942 1885570 1983386 2108225 2264774 2466497 2724825 3040094 
695.694 3395462 3761415 4101419 4382209 4585420 4708632 4767386 4788123 
699.551 4804439 4845783 4932706 5073716 5264271 5490410 5730667 5963768 
703.408 6171451 6343627 6481396 6596097 6706757 6834678 6999642 7214120 
707.265 7479671 7787009 8119074 8455548 8779537 9085361 9381243 9691319 
711.122 10048546 10489527 11042590 11718750 12508692 13384775 14310500 
714.497 15247605 16171020 17073586 17964118 18859592 19775954 20717988 
717.872 21676002 22625628 23533994 24367506 25092622 25682046 26114778 
721.247 26375948 26461268 26378414 26147538 25796870 25358024 24859588 
724.621 24321458 23757464 23176304 22586500 22000458 21432506 20898220 
727.996 20410254 19973382 19584470 19232374 18901776 18576272 18242648 
731.371 17893330 17526318 17144966 16756028 16368985 15994148 15641171 
734.746 15319404 15037116 14802592 14624220 14508647 14459076 14471614 
738.121 14533349 14619903 14699721 14740853 14715111 14609142 14428521 
741.496 14197886 13952078 13728946 13556553 13443588 13379137 13336323 
744.870 13283914 13194723 13058666 12884594 12699263 12535258 12421535 
748.245 12372202 12380248 12416967 12439436 12407284 12289300 12076082 
751.620 11781321 11438144 11085552 10757326 10473200 10233868 10026946 
754.995 9835205 9647377 9462746 9290988 9145083 9035018 8960191 8910066 
758.852 8867521 8817879 8754686 8682038 8611564 8556410 8524307 8514407 
762.709 8517008 8519137 8510757 8486869 8449130 8402475 8351805 8299724 
766.566 8248830 8204055 8175524 8179541 8233601 8347414 8516772 8718276 
770.423 8914632 9059309 9113715 9057753 8897248 8660742 8393152 8142875 
774.279 7947105 7826682 7782860 7800942 7855865 7920311 7973090 7998908 
778.136 7990977 7949467 7878910 7785120 7674489 7552119 7419942 7278471 
781.993 7125662 6958159 6771907 6563198 6329741 6071545 5793456 5505477 
785.850 5225067 4974330 4777336 4656315 4624332 4682774 4819347 5011065 
789.707 5225033 5425384 5579207 5659865 5654125 5564843 5411696 5226341 
793.564 5050484 4924964 4877346 4916385 5025042 5169838 5307034 5400558 
797.421 5434846 5419580 5384958 5370197 5406596 5503095 5642947 5789527 
801.278 5904751 5961518 5958494 5919563 5887084 5902265 5989937 6150110 
805.135 6357479 6571271 6749124 6863391 6906615 6892812 6847671 6801222 
808.992 6776249 6782071 6815123 6861842 6904528 6928026 6925905 6901229 
812.849 6867430 6842891 6845752 6886652 6964321 7062614 7154865 7212369 
816.706 7209606 7135497 6996073 6812969 6615306 6432027 6283247 6174812 
820.563 6099502 6040332 5979019 5899578 5795000 5667284 5526652 5387608 
824.420 5266048 5174700 5120416 5102144 5110995 5133525 5153408 5155990 
828.277 5132553 5079448 4999534 4899228 4786984 4669678 4553543 4444903 
832.133 4349577 4274750 4226702 4207899 4216129 4242929 4275921 4300550 
835.990 4306406 4289674 4255242 4215560 4187457 4188327 4231185 4321700 
839.847 4456754 4626074 4812312 4996786 5164104 5304183 5415990 5506148 
843.704 5586256 5667318 5754976 5846211 5930614 5993868 6024910 6021147 
847.561 5991684 5953389 5923224 5911770 5916137 5922250 5909890 5865019 
851.418 5786605 5691052 5605186 5557594 5564373 5622337 5706998 5782811 
855.275 5816894 5789963 5704682 5583872 5461553 5367312 5317130 5308074 
859.132 5320786 5327495 5305022 5244249 5154883 5063659 5005333 5016059 
862.989 5118874 5316459 5587833 5894137 6182777 6401796 6515332 6508303 
866.846 6394197 6208926 6004114 5827976 5713444 5669936 5682894 5719958 
870.703 5742016 5718010 5630930 5482357 5288721 5077303 4878921 4720958 
874.560 4628552 4619309 4701731 4873359 5119511 5410891 5704514 5954665 
878.417 6116976 6161402 6082835 5902467 5664330 5423506 5238112 5149821 
882.274 5177282 5310992 5518665 5752122 5960577 6105450 6163486 6133476 
886.131 6031495 5887252 5735267 5606058 5525242 5506953 5556318 5668358 
889.987 5829924 6018695 6205565 6361245 6457013 6473493 6406100 6266472 
893.844 6080147 5879930 5699713 5561923 5476955 5441187 5442093 5464204 
897.701 5493263 5521115 5542391 5554372 5553466 5534437 5492558 5425418 
901.558 5335814 5232444 5127222 5032685 4956433 4900803 4862368 4835329 
905.415 4814288 4797470 4787587 4790267 4810804 4851546 4909281 4976609 
909.272 5043143 5099596 5140734 5167591 5186905 5208366 5241901 5293718 
913.129 5363387 5443636 5523229 5589477 5632978 5651607 5650399 5641302 
916.986 5637845 5651003 5684270 5733018 5784456 5822234 5831972 5804302 
920.843 5738289 5641168 5526719 5410320 5308007 5233752 5196496 5201526 
924.700 5248575 5331117 5437463 5553029 5662148 5751115 5812025 5842685 
928.557 5847320 5833517 5810447 5786605 5768373 5761725 5772335 5806653 
932.414 5870795 5968135 6097418 6249933 6410639 6559800 6676540 6744783 
936.271 6756696 6714967 6631456 6525860 6420089 6332969 6278439 6261161 
940.128 6276053 6309805 6345778 6366692 6359732 6320798 6253429 6168494 
943.985 6079072 5998302 5935149 5894372 5877411 5884834 5917984 5978280 
947.841 6066236 6178946 6307754 6439055 6556099 6642625 6688721 6692590 
951.698 6662072 6611875 6560507 6523909 6512373 6528114 6565115 6610798 
955.555 6649825 6668667 6659078 6621362 6565283 6509278 6474535 6480690 
959.412 6539416 6650364 6800515 6966543 7122395 7242993 7311122 7320523 
963.269 7275372 7188719 7077466 6961392 6858038 6781095 6738187 6729034 
967.126 6744311 6767230 6778538 6759927 6700767 6602422 6477798 6347628 
970.983 6233732 6153606 6114153 6113346 6141138 6186004 6237160 6286474 
974.840 6328262 6356605 6364674 6346115 6297568 6222404 6131426 6042549 
978.697 5973947 5937970 5936593 5960375 5991483 6010161 6003509 5967967 
982.554 5910494 5843021 5778681 5724557 5680947 5642544 5603138 5559641 
986.411 5514705 5475377 5450749 5446891 5463466 5493128 5523732 5541820 
990.268 5536988 5505041 5449139 5379188 5308208 5250051 5216146 5213463 
994.125 5242841 5299588 5374693 5455010 5525376 5571991 5582161 5548432 
997.982 5471317 5359328 5229292 5104894 5012339 4973291 5000741 5093562 
1001.839 5237207 5405624 5569743 5705655 5799500 5851820 5875027 5887588 
1005.695 5904919 5933973 5969647 5998504 6002770 5969311 5894440 5787076 
1009.552 5664297 5546586 5452964 5393546 5369526 5374323 5396767 5425586 
1013.409 5452092 5472559 5486853 5497994 5508765 5521752 5537357 5554405 
1017.266 5570682 5584107 5592364 5593203 5584812 5563601 5525913 5468197 
1021.123 5388044 5287010 5171715 5054943 4953283 4883679 4859520 4885858 
1024.980 4957740 5060374 5173593 5274936 5345508 5375229 5365366 5329004 
1028.838 5289526 5278156 5325818 5456218 5679101 5984125 6338987 6693600 
1032.695 6995298 7195558 7265836 7204788 7037390 6806169 6556503 6326177 
1036.553 6132232 5971562 5826667 5676650 5506886 5315319 5111967 4915916 
1040.410 4747387 4621419 4546143 4522538 4544670 4602431 4683879 4775393 
1044.267 4864513 4943262 5009959 5071603 5140835 5232780 5355806 5506081 
1048.125 5663524 5796914 5871500 5859578 5751350 5559909 5318137 5066307 
1051.982 4845816 4686626 4601795 4590343 4639972 4732682 4847961 4967459 
1055.840 5074252 5153106 5194450 5193511 5153643 5085751 5006138 4931600 
1059.697 4874934 4842566 4833386 4842131 4861162 4884484 4909482 4936828 
1063.555 4969973 5013713 5074252 5155923 5261185 5387440 5524940 5655200 
1067.412 5753834 5795806 5760751 5642108 5448501 5205047 4942759 4692018 
1071.269 4473625 4293857 4148350 4026702 3921905 3833780 3770640 3744571 
1075.127 3766362 3838159 3951830 4088709 4226534 4343888 4425957 4468269 
1078.984 4474864 4456619 4426526 4399045 4386225 4396434 4434459 4500007 
1082.842 4588099 4688836 4790703 4879324 4941486 4967493 4951104 4890850 
1086.699 4789832 4656014 4500576 4337362 4181301 4043992 3932236 3845614 
1090.557 3777324 3715696 3649198 3570148 3478721 3383373 3299231 3245314 
1094.414 3238171 3286611 3389752 3534504 3697282 3848355 3960624 4012021 
1098.271 3993294 3908832 3775720 3617790 3460084 3322902 3215672 3138437 
1102.129 3083906 3042963 3008797 2979804 2958586 2950780 2962423 2996686 
1105.986 3056277 3142108 3254962 3394827 3558422 3737586 3916756 4076467 
1109.844 4194349 4251662 4239081 4158319 4021652 3846750 3653809 3459850 
1113.701 3278899 3125020 3012200 2956351 2971797 3064819 3229058 3442684 
1117.558 3671953 3875534 4017639 4076969 4052018 3959888 3829802 3695144 
1121.416 3581307 3503939 3466764 3465796 3493251 3541719 3607099 3686455 
1125.273 3776823 3874598 3973330 4066199 4146744 4211144 4258254 4290478 
1129.131 4312296 4329095 4346900 4369725 4398543 4430409 4457724 4470546 
1132.988 4458394 4415279 4343419 4254640 4167719 4105299 4085565 4116672 
1136.846 4194416 4302792 4420500 4525652 4603704 4649583 4667334 4665559 
1140.703 4653937 4639871 4627112 4617735 4614587 4621687 4645967 4694028 
1144.560 4770066 4874498 5003523 5150793 5309751 5475747 5645733 5816525 
1148.418 5983386 6137037 6264892 6354621 6397290 6391742 6346048 6277330 
1152.275 6206069 6151892 6128972 6141809 6185365 6247480 6313335 6368608 
1156.133 6403309 6413296 6400484 6371332 6334414 6299282 6273464 6261127 
1159.990 6262741 6275313 6293331 6309905 6319722 6319689 6309132 6290407 
1163.848 6266976 6242673 6220455 6202204 6188860 6181097 6179282 6183046 
1167.705 6190205 6196322 6194541 6176425 6134450 6064086 5965213 5842148 
1171.562 5701593 5551452 5397404 5242975 5090645 4943865 4809598 4699086 
1175.420 4624801 4598011 4622859 4693492 4793450 4900200 4990116 5043277 
1179.277 5050250 5011936 4938972 4846520 4751675 4668405 4606383 4570720 
1183.135 4561981 4576814 4607387 4642885 4670918 4678956 4660033 4613080 
1186.992 4545641 4470512 4403798 4358647 4341645 4351451 4379297 4412902 
1190.849 4439313 4449121 4438108 4407179 4361525 4308481 4257150 4215527 
1194.707 4191338 4190535 4216196 4267355 4339637 4424484 4510352 4585420 
1198.564 4638532 4661707 4652631 4614386 4556020 4489762 4430744 4391982 
1202.422 4381808 4402292 4448518 4510352 4575475 4634680 4683109 4721527 
1206.279 4753852 4784806 4815427 4842767 4860325 4861933 4845146 4814121 
1210.137 4778408 4749364 4735529 4738510 4750838 4758375 4746885 4705282 
1213.994 4630628 4529000 4413438 4299212 4200204 4127042 4086033 4079645 
1217.851 4107105 4164741 4245439 4338935 4433120 4516478 4581000 4624533 
1221.709 4651292 4669578 4687195 4709536 4735797 4760117 4774790 4774924 
1225.566 4760552 4736735 4711981 4694028 4686592 4688233 4694262 4699655 
1229.424 4702636 4705516 4713656 4731945 4761993 4799916 4836368 4860358 
1233.281 4863038 4840991 4797972 4743301 4690109 4650688 4634144 4644660 
1237.139 4681769 4739984 4811407 4886896 4957773 5017165 5062150 5093729 
1240.996 5116762 5138555 5166485 5204644 5254042 5310958 5370365 5427028 
1244.853 5478666 5526115 5572227 5620055 5669668 5717742 5758300 5786068 
1248.711 5798694 5799063 5795101 5797149 5813301 5845372 5888025 5930110 
1252.568 5956815 5956109 5922956 5861055 5782039 5701492 5635898 5596089 
1256.426 5586020 5602164 5636234 5678429 5720830 5760113 5797216 5834894 
1260.283 5876034 5920840 5965817 6005996 6036367 6055014 6064523 6071781 
1264.141 6084851 6110625 6151220 6203481 6258774 6306073 6336264 6344366 
1267.998 6331590 6305838 6279213 6265262 6275649 6318310 6394667 6500062 
1271.855 6624222 6753600 6872985 6969068 7032911 7060559 7054464 7022910 
1275.713 6979405 6937958 6912237 6911530 6939440 6993648 7066992 7149745 
1279.570 7231336 7302799 7358637 7396248 7417246 7425436 7427323 7428908 
1283.428 7435750 7451087 7475154 7505426 7537184 7565740 7587016 7599761 
1287.285 7605258 7607618 7610518 7617734 7630177 7646971 7665890 7685585 
1291.142 7706866 7733714 7773078 7833463 7923146 8046667 8204055 8388388 
1295.000 8587771 8785893 8965806 9114020 9222480 9291597 9329206 9349180 
1298.857 9367429 9396851 9445136 9511749 9589178 9663842 9721780 9750582 
1302.715 9743161 9699281 9625119 9530648 9428070 9329512 9244547 9179465 
1306.572 9136556 9113918 9106271 9105391 9102380 9089455 9061068 9015972 
1310.430 8957282 8891194 8825149 8766215 8719020 8683728 8657396 8634142 
1314.287 8608455 8576247 8535661 8487240 8432811 8373896 8311781 8247243 
1318.144 8181534 8116441 8055273 8001608 7958882 7928544 7910762 7903878 
1322.002 7906442 7917578 7937859 7968061 8007616 8053080 8098616 8136089 
1325.859 8159013 8165057 8159148 8151248 8156211 8187813 8254402 8356332 
1329.717 8485923 8630592 8775953 8910776 9029707 9132698 9223799 9309233 
1333.574 9394684 9483877 9578507 9678173 9781319 9885098 9986903 10084423 
1337.432 10177388 10267691 10360457 10463187 10582544 10721222 10876186 
1340.807 11038512 11197770 11343652 11470702 11576587 11662723 11733217 
1344.182 11793544 11848668 11903833 11963058 12029615 12106745 12197178 
1347.557 12302286 12421365 12550845 12684661 12814663 12933098 13034252 
1350.932 13114908 13175801 13219794 13251939 13278174 13304822 13338168 
1354.308 13384229 13448782 13537137 13652725 13797862 13972882 14176455 
1357.683 14405127 14654824 14921844 15205327 15511385 15856525 16270766 
1361.058 16792016 17460982 18300776 19298912 20399350 21517556 22569676 
1364.433 23493630 24260838 24865764 25317984 25638072 25858794 26029282 
1367.809 26210568 26474578 26883850 27477616 28270324 29255016 30420416 
1371.184 31764202 33303652 35071088 37095732 39372676 41825580 44292752 
1374.559 46569112 48462528 49858204 50722776 51063644 50892060 50205984 
1377.934 49000988 47300556 45180348 42770592 40215656 37652072 35175488 
1381.310 32835186 30654144 28638286 26785724 25086268 23517414 22044100 
1384.685 20622670 19213324 17792728 16366955 14973663 13669070 12500064 
1388.060 11484004 10604646 9832121 9141698 8521536 7971436 7494739 7091274 
1391.918 6752086 6462058 6203783 5965851 5745440 5548633 5384153 5254713 
1395.775 5154581 5073045 5001344 4936693 4881903 4841461 4815997 4800351 
1399.632 4785376 4764438 4736802 4707895 4685420 4675808 4680865 4697712 
1403.490 4721360 4748727 4781255 4825479 4888002 4969135 5060876 5149720 
1407.347 5221043 5266417 5285971 5287379 5281543 5278122 5282080 5291907 
1411.205 5304585 5319008 5338296 5369124 5415823 5476585 5542391 5600050 
1415.062 5638852 5656374 5661577 5674367 5719588 5817633 5974618 6174845 
1418.920 6388144 6585803 6758917 6917152 7077196 7250472 7441581 7651287 
1422.777 7882047 8141322 8439771 8784811 9173103 9588432 10009958 10419268 
1426.634 10810485 11191820 11584857 12018987 12522095 13112824 13794784 
1430.010 14559696 15396399 16296428 17253104 18255642 19287134 20323546 
1433.385 21344482 22346052 23345356 24388358 25540720 26861890 28351064 
1436.760 29923452 31444520 32811168 34000820 35057044 36047972 37040592 
1440.135 38082684 39197632 40384968 41628468 42904908 44192116 45476528 
1443.511 46750068 48007292 49246048 50467576 51682400 52912160 54187116 
1446.886 55533292 56955540 58430636 59913000 61361748 62766484 64151704 
1450.261 65566204 67059136 68657104 70346272 72073304 73767832 75358752 
1453.636 76806976 78106240 79269584 80310672 81222936 81970048 82497352 
1457.012 82790936 82916000 82967456 83005720 83026984 82998784 82889896 
1460.387 82689272 82402680 82041168 81606128 81080384 80420400 79564136 
1463.762 78448664 77042288 75368296 73486176 71448376 69268576 66917488 
1467.137 64365460 61610676 58696284 55683408 52638880 49600876 46542480 
1470.513 43386608 40029012 36416032 32640964 28986408 25803200 23293124 
1473.888 21426520 20023622 18881532 17867746 16923702 16049946 15267510 
1477.263 14588034 13997178 13461941 12944840 12419661 11876794 11325491 
1480.638 10785314 10278582 9819818 9411546 9046961 8716653 8414332 8136899 
1484.496 7881946 7644846 7416875 7187574 6949641 6703291 6457720 6229934 
1488.353 6036804 5887823 5779957 5698740 5628413 5558970 5489605 5423506 
1492.211 5363086 5306933 5250789 5189286 5118069 5035132 4941787 4841427 
1496.068 4739549 4639336 4542125 4447481 4355702 4268560 4188093 4114765 
1499.925 4046099 3978480 3908130 3832844 3752725 3667576 3575460 3469470 
1503.783 3334989 3149918 2884932 2511452 2028723 1504835 1096263 951723 
1507.640 1067996 1309441 1548194 1728126 1841013 1902276 1933161 1951566 
1511.498 1967209 1981422 1987979 1978426 1944443 1880113 1781888 1649293 
1515.355 1486814 1306217 1130578 986525 891823 847035 837640 843616 846504 
1519.695 836478 815166 799796 816261 882825 989348 1102641 1185263 1212175 
1524.034 1174166 1075370 932730 774436 635412 542245 505090 514511 550672 
1528.374 592741 627050 648320 655886 652335 639991 622039 602529 588826 
1532.714 591348 617892 665941 719305 758503 767631 740115 675133 574924 
1537.053 442962 284184 109289 -64871 -211012 -299958 -316149 -276647 -221047 
1541.393 -180708 -166102 -168652 -169977 -147123 -80640 37078 196396 370696 
1545.732 527748 641219 699592 702247 656749 575654 476032 377494 297081 
1550.072 245294 221424 218308 227425 244564 269164 302353 342906 384160 
1554.411 414704 421802 394938 327421 213700 49239 -167592 -421128 -644343 
1558.751 -724202 -601694 -358991 -117344 62495 175049 234155 254809 250598 
1563.091 233425 214231 201601 200540 211413 231038 254544 279011 304044 
1567.430 330538 359520 389599 416694 435500 444057 445649 447042 453046 
1571.770 464655 478785 489765 491357 478885 451520 414804 380678 367015 
1576.109 386315 436959 503896 570412 627481 674469 714659 751931 788045 
1580.449 821871 850488 871039 882227 885016 882360 877380 872798 869511 
1584.789 867885 868814 873064 881729 895076 911744 928878 943289 952852 
1589.128 958730 963944 973242 988850 1010105 1031394 1045144 1045509 1031095 
1593.468 1007448 985031 975932 988352 1022825 1071317 1120845 1158485 
1597.325 1175362 1170179 1147920 1117390 1087992 1067697 1061884 1072812 
1601.183 1100249 1142671 1196958 1258596 1322003 1380701 1429233 1464406 
1605.040 1485418 1493763 1491070 1478802 1457325 1426141 1385853 1338887 
1608.898 1289700 1243775 1205763 1177455 1157322 1140910 1122008 1094038 
1612.755 1052185 992736 913737 814800 698530 573298 456163 371624 340386 
1617.095 365721 428899 502005 559795 587333 579569 537435 465948 373249 
1621.434 271220 173756 96165 49737 35587 43904 59015 67499 60904 36979 -1822 
1626.738 -48936 -94620 -127911 -139405 -125228 -88061 -35683 22001 75220 
1631.078 115089 135207 129540 93448 22796 -84317 -224789 -385442 -536042 
1635.417 -635410 -654301 -598915 -504603 -410469 -339424 -296448 -277044 
1639.275 -271779 -271051 -267011 -256348 -240221 -223199 -210747 -207700 
1643.132 -217636 -242473 -284230 -345185 -426689 -524923 -624955 -699558 
1646.990 -718811 -671637 -573403 -452938 -335352 -236910 -166466 -127547 
1650.847 -122876 -155635 -228498 -335617 -451216 -530582 -547459 -517411 
1654.704 -468593 -417189 -367367 -318433 -269031 -218430 -167957 -120558 
1658.562 -79812 -49963 -35253 -38997 -62751 -104160 -155503 -203163 -231810 
1662.901 -232075 -206674 -169778 -140697 -135066 -160670 -218364 -302540 
1666.759 -402027 -500300 -578532 -617345 -604209 -539021 -437248 -323698 
1670.616 -220285 -140631 -89618 -67256 -71795 -100483 -147818 -202964 
1674.474 -251017 -275554 -269395 -240320 -208164 -192863 -206044 -251447 
1678.331 -325320 -418645 -517775 -609338 -684076 -739981 -781888 -817574 
1682.189 -852265 -883977 -899683 -878190 -808446 -705943 -603183 -521547 
1686.046 -464158 -424173 -393652 -366639 -340616 -315553 -293402 -275819 
1689.903 -263633 -256977 -255520 -260322 -273898 -300322 -343993 -409476 
1693.761 -500201 -615922 -750400 -886887 -1001513 -1076647 -1111152 -1116902 
1697.618 -1106095 -1082761 -1040718 -966504 -850347 -700981 -553151 -445159 
1701.476 -391467 -384350 -408648 -452673 -508508 -571484 -637097 -698268 
1705.333 -746629 -774909 -780367 -766541 -740742 -711533 -685399 -666741 
1709.191 -657279 -656022 -661150 -669917 -681727 -697276 -719604 -753509 
1713.048 -804312 -876901 -974802 -1098130 -1242800 -1399015 -1548538 
1716.423 -1665003 -1714412 -1670714 -1533416 -1335367 -1124999 -941807 
1719.798 -805866 -719042 -674945 -662837 -670082 -682786 -687384 -673390 
1723.656 -635641 -577043 -506588 -439002 -388985 -370313 -393752 -463264 
1727.513 -577076 -724666 -889995 -1050634 -1186035 -1283602 -1343559 
1730.889 -1378571 -1407107 -1446572 -1504261 -1569470 -1609382 -1583567 
1734.264 -1472726 -1304514 -1130518 -991794 -902858 -861359 -856696 -874685 
1738.121 -899551 -915125 -909834 -882588 -843369 -807421 -789065 -795482 
1741.979 -825974 -873792 -929144 -982207 -1026967 -1063393 -1097304 -1138483 
1745.836 -1195981 -1276070 -1378604 -1495610 -1610637 -1701343 -1746128 
1749.211 -1727911 -1641634 -1495808 -1313532 -1125462 -961644 -843568 
1752.587 -777787 -760885 -782715 -830968 -892144 -950998 -993149 -1004059 
1756.444 -976983 -916546 -838839 -763333 -705910 -674317 -667766 -679345 
1760.301 -697474 -709846 -705182 -678882 -634947 -584058 -537565 -504239 
1764.159 -488187 -490570 -510692 -546169 -593455 -647122 -699194 -741403 
1768.016 -766839 -772925 -760885 -734325 -696018 -646560 -585348 -514465 
1771.874 -441551 -381602 -348662 -348496 -375345 -415831 -452805 -471374 
1775.731 -462073 -423908 -365049 -301580 -251745 -229392 -240817 -281945 
1779.589 -339689 -395307 -433177 -448204 -447277 -444034 -451945 -478688 
1783.446 -523401 -577175 -625848 -657775 -667535 -659132 -641861 -626708 
1787.303 -620256 -623664 -632333 -638917 -635311 -615029 -574958 -517477 
1791.161 -450687 -386667 -338729 -315122 -316248 -337272 -372068 -415931 
1795.018 -466872 -524857 -590742 -665484 -749077 -839500 -932252 -1020719 
1798.876 -1094957 -1143539 -1156790 -1128701 -1061178 -963330 -850810 
1802.251 -740014 -645997 -580021 -547956 -550570 -582470 -633392 -688277 
1806.108 -730620 -746431 -727610 -676169 -604010 -531575 -480839 -468891 
1809.966 -502319 -574892 -667965 -757809 -825974 -863938 -874751 -868997 
1813.823 -859441 -855043 -859606 -871114 -883977 -891979 -891152 -880869 
1817.681 -865129 -850049 -841517 -844990 -863640 -898361 -947328 -1006207 
1821.538 -1067656 -1121066 -1155832 -1161153 -1131311 -1068846 -987000 
1824.913 -907586 -852926 -838475 -867410 -932615 -1020058 -1114820 -1201929 
1828.771 -1266159 -1294339 -1278217 -1218714 -1125264 -1012786 -896344 
1832.146 -787478 -695258 -626046 -582106 -561821 -559042 -564468 -569002 
1836.003 -568274 -564171 -564502 -579822 -618767 -682918 -767567 -861557 
1839.861 -952486 -1029909 -1085637 -1114556 -1114655 -1085273 -1029314 
1843.236 -954469 -875247 -807718 -765284 -751128 -755924 -763168 -755527 
1847.093 -720961 -655922 -567513 -473723 -397890 -360646 -373591 -435494 
1850.951 -534785 -653375 -773057 -880769 -969810 -1041081 -1101237 -1157848 
1854.808 -1215245 -1272138 -1320932 -1350396 -1348216 -1306628 -1225818 
1858.183 -1115911 -995265 -885895 -810662 -785460 -814862 -889367 -989744 
1862.041 -1091156 -1171892 -1220994 -1238274 -1232888 -1218086 -1205332 
1865.416 -1198625 -1194098 -1182367 -1154841 -1110292 -1058931 -1019529 
1868.791 -1010042 -1034933 -1080547 -1121232 -1132237 -1098593 -1019265 
1872.167 -904610 -773156 -645898 -538657 -459855 -409906 -383820 -374783 
1876.024 -376372 -384846 -396499 -408185 -417222 -422882 -427880 -440260 
1879.881 -471009 -529722 -619264 -734126 -860234 -978570 -1071590 -1128932 
1883.739 -1150247 -1144993 -1127313 -1110854 -1102856 -1102790 -1104244 
1887.114 -1099022 -1079291 -1040255 -981017 -904015 -813572 -716495 -620190 
1890.972 -531873 -457902 -401465 -361937 -335087 -313566 -290852 -263898 
1894.829 -236910 -219656 -226080 -267011 -345119 -454692 -582569 -712327 
1898.686 -827462 -916910 -975628 -1004554 -1008786 -995992 -975364 -956982 
1902.544 -952320 -972223 -1023099 -1104707 -1207083 -1313136 -1400237 
1905.919 -1449016 -1447761 -1397727 -1310955 -1207777 -1108871 -1027958 
1909.294 -970867 -935426 -916282 -909404 -916778 -943129 -994934 -1075060 
1913.152 -1179261 -1295363 -1407503 -1497756 -1553061 -1568479 -1546920 
1916.527 -1497987 -1435575 -1374905 -1326085 -1292786 -1271577 -1255223 
1919.902 -1239001 -1221952 -1208967 -1208736 -1228990 -1270652 -1323541 
1923.277 -1368101 -1380586 -1342601 -1249078 -1109136 -944551 -782153 
1926.653 -648115 -559604 -520654 -524195 -556692 -604838 -660058 -719902 
1930.510 -787246 -866319 -959462 -1066334 -1184052 -1309204 -1438382 
1933.885 -1569008 -1696755 -1815094 -1915126 -1985550 -2016289 -2000821 
1937.261 -1939372 -1838521 -1709099 -1563164 -1412623 -1267810 -1142283 
1940.636 -1052022 -1015860 -1049279 -1154279 -1317991 -1508851 -1691507 
1944.011 -1836409 -1925946 -1957514 -1938811 -1880124 -1787971 -1664376 
1947.386 -1507101 -1315547 -1097833 -871081 -659892 -491000 -382264 -337670 
1951.244 -346311 -385575 -426656 -442577 -417486 -348397 -248235 -141558 
1955.101 -64076 -50592 -128673 -308964 -579260 -905172 -1236457 -1521794 
1958.959 -1719264 -1808198 -1793350 -1702135 -1575082 -1446837 -1344880 
1962.334 -1284692 -1275640 -1327010 -1450965 -1653649 -1929608 -2254970 
1965.709 -2581670 -2849930 -3008135 -3026529 -2914114 -2711162 -2471084 
1969.084 -2230511 -2001580 -1769591 -1514596 -1230212 -937773 -680007 
1972.460 -509335 -458002 -518701 -645468 -769684 -827032 -782351 -647486 
1976.317 -471638 -320817 -242804 -254030 -335518 -452507 -571815 -678154 
1980.174 -779044 -893765 -1035594 -1205530 -1382072 -1532393 -1622026 
1983.550 -1627538 -1545798 -1391948 -1194593 -985182 -798921 -670810 -629918 
1987.407 -698466 -883514 -1168455 -1511757 -1853731 -2120166 -2238126 
1990.782 -2161940 -1886920 -1460343 -969380 -521084 -207435 -82893 -158351 
1994.640 -403683 -763068 -1166109 -1552137 -1875275 -2110571 -2255168 
1998.015 -2323922 -2341851 -2329690 -2305894 -2278670 -2248015 -2214392 
2001.390 -2180007 -2150664 -2133849 -2133157 -2145653 -2159830 -2164512 
2004.766 -2150565 -2119737 -2083433 -2057711 -2047983 -2043267 -2012530 
2008.141 -1918425 -1734148 -1462622 -1142911 -847238 -657577 -630447 -782550 
2011.998 -1079919 -1449941 -1799949 -2054051 -2174501 -2171303 -2096557 
2015.373 -2020874 -2012661 -2108427 -2304081 -2551202 -2779580 -2909638 
2018.749 -2883077 -2678595 -2311827 -1831691 -1311715 -836954 -475047 
2022.124 -266945 -215880 -294229 -457373 -657279 -858316 -1034669 -1173115 
2025.981 -1264639 -1301673 -1282710 -1214121 -1121265 -1043461 -1026239 
2029.357 -1100245 -1262161 -1463513 -1621465 -1648895 -1475798 -1086166 
2032.732 -528232 93713 663120 1078060 1280827 1268332 1075901 765540 400178 
2037.071 38967 -273567 -506390 -638851 -665848 -599709 -474650 -341610 
2040.929 -249990 -232869 -290091 -388058 -471705 -493416 -429072 -292971 
2044.786 -132681 -12524 16501 -67555 -250619 -491000 -737070 -943361 
2048.644 -1087256 -1166242 -1190166 -1169414 -1110325 -1014901 -887085 
2052.019 -739749 -594713 -477795 -414077 -415467 -478456 -583396 -704520 
2055.876 -813209 -888110 -917472 -896641 -826305 -711732 -562715 -393851 
2059.734 -224425 -75274 40193 118072 167823 207070 256599 329842 427938 
2064.073 538098 637867 706528 729229 702844 634084 534980 414671 279542 
2068.413 132291 -25777 -190379 -352800 -503610 -634450 -742197 -830703 
2072.270 -905106 -967793 -1014736 -1033743 -1009480 -930698 -797234 -622208 
2076.128 -433276 -263865 -143347 -92235 -116119 -203925 -334359 -482660 
2079.985 -625252 -745703 -837086 -899683 -939724 -966272 -987728 -1010405 
2083.843 -1036586 -1065310 -1093602 -1118423 -1138780 -1156030 -1174503 
2087.218 -1199913 -1237184 -1288954 -1355450 -1433065 -1514959 -1593009 
2090.593 -1656289 -1690946 -1683190 -1619352 -1489006 -1289648 -1029148 
2093.968 -728437 -416891 -128673 105511 265816 345095 349970 296584 207667 
2098.308 104815 3876 -85477 -162028 -229127 -292607 -354952 -414143 -461444 
2102.647 -484381 -470414 -413713 -318599 -202732 -91870 -13882 11265 -21801 
2106.987 -100517 -198758 -288269 -345119 -360117 -340418 -305752 -279362 
2110.844 -279495 -314824 -382595 -472466 -571914 -669553 -757181 -829215 
2114.702 -880472 -906263 -904445 -877793 -837846 -803386 -794589 -827859 
2118.559 -905635 -1013711 -1121727 -1194395 -1198559 -1115547 -948188 
2121.935 -718248 -459293 -207203 5500 159072 243172 256267 201435 82710 
2126.274 -94057 -320155 -579293 -847238 -1093999 -1286906 -1399379 -1416817 
2130.132 -1340949 -1189538 -993711 -792207 -619330 -499307 -440624 -433739 
2133.989 -456612 -481634 -486863 -459855 -401564 -324526 -248268 -189915 
2137.846 -162624 -172461 -218265 -294958 -395407 -509865 -628363 -738988 
2141.704 -831695 -897732 -937343 -957412 -975793 -1014769 -1096478 -1234706 
2145.561 -1432174 -1675268 -1937228 -2186304 -2385317 -2501953 -2513945 
2148.937 -2408713 -2186403 -1861847 -1466188 -1039528 -632201 -292210 -53077 
2152.794 67035 70813 -21901 -177529 -357998 -525850 -649868 -712261 -710144 
2157.134 -657610 -582602 -515855 -477133 -461411 -432846 -335915 -122976 
2160.991 228618 695310 1207025 1658739 1954994 2030321 1881277 1562060 
2164.848 1170910 813572 566066 459911 474340 558535 655786 729727 776494 
2169.188 818054 881796 985961 1121609 1255273 1336029 1315922 1166425 888137 
2173.528 512388 88708 -318897 -653904 -873925 -954668 -892409 -705016 
2177.385 -428245 -108136 198949 441967 585044 608933 516369 330803 89537 
2181.725 -166102 -395374 -565660 -658404 -665848 -595606 -466475 -307673 
2185.582 -149706 -18057 76380 139384 189336 248311 330438 432183 531132 
2189.922 596059 596922 518758 369767 176706 -24651 -203892 -344755 -451051 
2194.261 -538359 -624888 -720895 -822336 -912909 -976620 -999893 -982504 
2198.119 -934301 -870717 -802923 -736673 -668792 -593356 -508938 -421326 
2201.976 -342801 -289826 -275488 -302044 -361110 -432250 -490636 -510792 
2205.833 -474452 -372399 -206872 9111 252190 490395 688142 811713 833955 
2210.173 743036 544402 263561 -61127 -379781 -646196 -827099 -906858 -890590 
2214.513 -802129 -676798 -547757 -442776 -374650 -339424 -322771 -306083 
2218.370 -276945 -234293 -190180 -162856 -169878 -217238 -295090 -377265 
2222.228 -433673 -435659 -368261 -236015 -60100 129275 302387 436263 521212 
2226.567 557871 556345 532326 503631 489698 507479 568090 672080 806302 
2230.907 941762 1040859 1069358 1004957 849127 626917 382303 160199 -2120 
2235.246 -88922 -106744 -78023 -29521 18688 58750 93812 132622 181612 240288 
2240.068 300198 348080 372022 363798 319529 240686 129938 -7521 -164181 
2244.408 -326711 -476603 -591437 -648379 -634616 -549379 -407523 -234525 
2248.265 -60763 87515 194275 255903 279111 275033 256035 230011 199811 
2252.605 163845 119729 65411 2750 -61558 -116318 -147123 -140697 -87961 
2256.944 10735 144919 292307 426312 523999 572303 573431 546259 518492 
2261.284 515706 554222 633222 735668 834353 902447 923233 894180 826818 
2265.624 742007 663186 606942 582522 588859 618887 660565 700853 728698 
2269.963 736132 720135 684956 641783 605283 590850 608667 658607 729528 
2274.303 802219 856132 876450 859883 815033 760229 714526 690233 688972 
2278.642 701649 712236 705067 672180 614408 543506 474473 422896 398055 
2282.982 402466 430724 474174 523369 571076 613578 651406 687578 725113 
2287.322 766569 812012 858854 903078 939570 964674 976164 975301 965206 
2291.661 950130 933427 917422 901717 884983 865926 844114 820975 800261 
2296.001 784726 776958 776992 782601 791033 799663 807365 815763 827382 
2300.340 843948 866324 892653 918850 939703 950860 950362 938906 921042 
2304.680 902879 892088 895475 917256 958664 1016448 1083740 1151209 1210813 
2309.020 1257399 1290764 1316952 1345269 1383759 1436746 1499914 1562160 
2312.877 1606855 1618794 1590293 1524785 1437544 1350952 1289767 1273682 
2316.734 1311036 1399149 1525849 1673473 1823611 1963082 2084120 2185111 
2320.592 2268838 2339722 2402555 2462032 2522483 2587809 2660445 2740363 
2324.449 2823597 2902344 2965825 3004092 3009931 2982506 2927962 2859583 
2328.307 2793917 2745265 2723791 2730994 2760737 2801687 2843007 2876761 
2332.164 2900876 2918789 2936435 2959220 2989412 3025045 3061649 3094218 
2336.021 3119013 3136000 3148783 3162701 3182593 3210832 3246149 3284207 
2339.879 3318662 3344439 3358530 3360433 3351117 3330983 3298129 3247952 
2343.736 3173882 3069591 2934434 2773808 2601108 2433209 2287357 2176020 
2347.594 2105761 2078693 2093243 2146317 2233334 2348617 2483692 2626276 
2351.451 2761804 2874292 2950580 2983841 2976801 2941439 2895072 2858083 
2355.309 2847043 2870290 2927062 3008463 3098890 3181592 3243545 3276061 
2359.166 3276929 3249988 3201452 3139538 3071593 3004326 2942807 2892571 
2363.023 2858283 2842841 2848043 2872291 2911117 2957919 3004593 3043664 
2366.881 3067956 3073428 3057044 3018039 2957285 2877661 2783746 2681815 
2370.738 2580576 2488557 2412984 2357445 2320135 2294019 2267006 2225507 
2374.596 2158271 2057753 1923809 1762525 1585671 1405997 1236332 1087461 
2378.453 964907 872167 810352 778352 774436 794883 833822 882692 931601 
2382.793 969655 987821 981810 952222 904738 848164 791962 743368 705532 
2387.132 678020 657578 641418 628211 619418 619153 631961 660034 702645 
2391.472 754753 809157 856962 891325 907992 906565 889465 861045 826054 
2395.812 789141 753790 723188 700421 688208 689237 705333 736531 780842 
2400.151 833192 886112 931069 960092 967431 951458 916028 869843 823631 
2404.491 789937 778585 794584 837408 901485 976629 1050923 1113504 1155129 
2408.830 1169814 1155760 1114666 1051787 974371 891823 812842 744629 691328 
2413.170 653961 631397 621674 624362 641186 675797 731619 809721 905569 
2417.510 1009474 1106461 1180512 1218455 1213139 1165727 1085069 985828 
2421.367 883921 794717 729959 695875 693518 718310 762154 813174 859219 
2425.707 889963 899293 886676 857891 823266 792858 774900 772179 781672 
2430.046 796211 808161 812012 806435 794784 782269 774104 772776 777158 
2434.386 783066 785622 780709 766669 744928 719173 694315 675133 665078 
2438.725 665609 676295 693717 714061 732083 744364 749176 748513 746554 
2443.065 748247 757242 773208 792095 805970 807431 792261 761192 720832 
2447.405 681306 653696 644537 656185 684558 723255 764710 803116 835715 
2451.744 861676 880667 891690 893284 883356 861477 830038 793323 757673 
2456.084 729428 712236 707955 716219 735070 762453 796377 834818 873761 
2460.423 908922 934556 945746 940865 921672 894711 868881 853476 854306 
2464.763 872732 904074 939968 970353 985728 980614 954446 911744 860481 
2469.103 810950 773539 755383 760594 788078 832760 886079 939703 985728 
2473.442 1019205 1038402 1043616 1036143 1017378 988385 950063 904938 858423 
2477.782 817456 790369 784394 802618 843184 898828 959328 1013592 1052750 
2482.121 1071782 1069756 1048864 1012928 966501 914035 859883 808759 765175 
2486.461 732249 711008 699691 693917 688341 679480 667401 656649 655189 
2490.801 671284 709946 770154 843616 917920 979286 1017478 1029434 1019969 
2495.140 999843 981411 975168 985263 1009208 1038634 1063080 1072746 1061220 
2499.480 1026943 972545 903510 827083 751898 686615 640256 621143 634151 
2503.819 680045 752496 840296 927583 999743 1046672 1067033 1067863 1061486 
2508.159 1061884 1078592 1112740 1157521 1201144 1231414 1240718 1229819 
2512.016 1205497 1178950 1159814 1152471 1154996 1160478 1159714 1146591 
2515.874 1120380 1085335 1049329 1020600 1004326 1000905 1007182 1017943 
2519.731 1029102 1039332 1050990 1068394 1096529 1138319 1193037 1256170 
2523.589 1320874 1379737 1426673 1459552 1480996 1497088 1516672 1547928 
2527.446 1595614 1658772 1729956 1796394 1844241 1860745 1839815 1783252 
2531.303 1701182 1607653 1518367 1445656 1394396 1363084 1344172 1328152 
2535.161 1306450 1275211 1235435 1192506 1154764 1129582 1123071 1137189 
2539.018 1170412 1218289 1274148 1330080 1378972 1415637 1436547 1442231 
2542.876 1435882 1423947 1413908 1414108 1431061 1467531 1522490 1589761 
2546.733 1660202 1722172 1765220 1782154 1770543 1733782 1679727 1619093 
2550.591 1561495 1514677 1481794 1463076 1456493 1460549 1475610 1504336 
2554.448 1548859 1610280 1684417 1762891 1833426 1883773 1906536 1901211 
2558.305 1875886 1843376 1817688 1808538 1816390 1833327 1846104 1841246 
2562.163 1810035 1753576 1681656 1609981 1553714 1523222 1521061 1542441 
2566.020 1578255 1619958 1663362 1708766 1759497 1818254 1883307 1947738 
2569.878 2000562 2030155 2030488 2002725 1956825 1906869 1868332 1851694 
2573.735 1859581 1887467 1926371 1966976 2003125 2034050 2063046 2094674 
2577.593 2132165 2174988 2218780 2257913 2286591 2301348 2301880 2290622 
2581.450 2270870 2246523 2221577 2199564 2185177 2183679 2199331 2234100 
2585.307 2286458 2349716 2413750 2468263 2504753 2519883 2516017 2499688 
2589.165 2479293 2461499 2449403 2442638 2438140 2432776 2425212 2416649 
2593.022 2409719 2406787 2408586 2413350 2417715 2418615 2415150 2409419 
2596.880 2406753 2413217 2433309 2467797 2513051 2561911 2605209 2635610 
2600.737 2648677 2644644 2627276 2602809 2577709 2556178 2540580 2530215 
2604.594 2523116 2517384 2511885 2507686 2508019 2517250 2539747 2578576 
2608.452 2633576 2701219 2774142 2842874 2897407 2930097 2937236 2920090 
2612.309 2884699 2839072 2792883 2752900 2722191 2701186 2687250 2678048 
2616.167 2672214 2670947 2676781 2692151 2718157 2752367 2789982 2824297 
2620.024 2849044 2861018 2860351 2851279 2839305 2830767 2830234 2839272 
2623.882 2857549 2883031 2912585 2943507 2973365 2999622 3019640 3031418 
2627.739 3033287 3025146 3008663 2987377 2966192 2949412 2940305 2939871 
2631.596 2947611 2960821 2976801 2992048 3004126 3010832 3010865 3003759 
2635.454 2990747 2974900 2961289 2955317 2962523 2986076 3026013 3077766 
2639.311 3134699 3188601 3231728 3259636 3271220 3268716 3256431 3239806 
2643.169 3223817 3212234 3207193 3209330 3217408 3229325 3241642 3251891 
2647.026 3257900 3259970 3260637 3264343 3275994 3299264 3334689 3379400 
2650.884 3426787 3469303 3500733 3517468 3520341 3513793 3504574 3498629 
2654.741 3500165 3510085 3526353 3545360 3563032 3576896 3585950 3591095 
2658.598 3594202 3597410 3602120 3608635 3616220 3623102 3627613 3628214 
2662.456 3624472 3616453 3605963 3594470 3583946 3575660 3570248 3567843 
2666.313 3568110 3571217 3577364 3587521 3602421 3622033 3645489 3670817 
2670.171 3695077 3715896 3731336 3740861 3744838 3744805 3741897 3737218 
2674.028 3731537 3724986 3717601 3709680 3700825 3690733 3678569 3663532 
2677.885 3645489 3625608 3606764 3592766 3587454 3593300 3609471 3632458 
2681.743 3656014 3673490 3680106 3673991 3656983 3634396 3612511 3596608 
2685.600 3590226 3593901 3605996 3623737 3644353 3665738 3686322 3704968 
2689.458 3719973 3729297 3730868 3722781 3704501 3676965 3642949 3606764 
2693.315 3572854 3545360 3527088 3518303 3517334 3520207 3522578 3520140 
2697.173 3510553 3494420 3474680 3456277 3444320 3442283 3450799 3467566 
2701.030 3488074 3507781 3523046 3532867 3538345 3541987 3546262 3552543 
2704.887 3560560 3569580 3578768 3588957 3602120 3621566 3649565 3686856 
2708.745 3731436 3779196 3824354 3862128 3889341 3905857 3914082 3917792 
2712.602 3921236 3928057 3939960 3957013 3977979 4000450 4021953 4041049 
2716.460 4056901 4070982 4085933 4105868 4134434 4174176 4224493 4281944 
2720.317 4340407 4392083 4430409 4451163 4453808 4441723 4420769 4397974 
2724.175 4379163 4368353 4366512 4372403 4382778 4393522 4400551 4400183 
2728.032 4389707 4367851 4334718 4292218 4243665 4193713 4147246 4108510 
2731.889 4080548 4064293 4058340 4059543 4063523 4065463 4060948 4047236 
2735.747 4023224 3990251 3951094 3910036 3870987 3837624 3811518 3793134 
2739.604 3781502 3775118 3773213 3775987 3784176 3798649 3819540 3845213 
2743.462 3872625 3897231 3914917 3922340 3918428 3904252 3882788 3858016 
2747.319 3833613 3812688 3797245 3788354 3786148 3789858 3798181 3808810 
2751.177 3818738 3824822 3824253 3815663 3800187 3781068 3762719 3750519 
2755.034 3748548 3758541 3779129 3806705 3835853 3861058 3878375 3885998 
2758.891 3884460 3876704 3867142 3859788 3857983 3863198 3874932 3891146 
2762.749 3909066 3925984 3940295 3951964 3962363 3974200 3990284 4012288 
2766.606 4040681 4073925 4109179 4142797 4171901 4194784 4211679 4224192 
2770.464 4235334 4248149 4264779 4286161 4311694 4339738 4368152 4395263 
2774.321 4420902 4446476 4475165 4510653 4556757 4615458 4686157 4765276 
2778.178 4847123 4924394 4991055 5043680 5082600 5111599 5137482 5167658 
2782.036 5207897 5260582 5324677 5395727 5468163 5536518 5597734 5651674 
2785.893 5700284 5746985 5794866 5845439 5898201 5951003 6001326 6047757 
2789.751 6090563 6132434 6178005 6232891 6301030 6384277 6481497 6587956 
2793.608 6696629 6800347 6892981 6971627 7036784 7092621 7145299 7201251 
2797.466 7266005 7342730 7432008 7532834 7642485 7758168 7876480 7994284 
2801.323 8108034 8214387 8310802 8397138 8475786 8551950 8633094 8726592 
2805.180 8837222 8966246 9110568 9263773 9418759 9570175 9716223 9858693 
2809.038 10001821 10150693 10308032 10474524 10648550 10827674 11010643 
2812.413 11198008 11391984 11595202 11809579 12034827 12268610 12507839 
2815.788 12750237 12995843 13247532 13509415 13786267 14080510 14391700 
2819.164 14715522 15045965 15376523 15701938 16020516 16334580 16650386 
2822.539 16976654 17324202 17703366 18122344 18586578 19097458 19653004 
2825.914 20248728 20880176 21544018 22240228 22971684 23744478 24565738 
2829.289 25442160 26379786 27383628 28458176 29609128 30843528 32169678 
2832.665 33596248 35131188 36780072 38546532 40432820 42440912 44573240 
2836.040 46832436 49221148 51739996 54386672 57154860 60035304 63016488 
2839.415 66086108 69233168 72446032 75714248 79027744 82375808 85748072 
2842.790 89135736 92530272 95924152 99309408 102675752 106011120 109299600 
2846.166 112520600 115651392 118662768 121519368 124181336 126599936 
2849.059 128724160 130505216 131899176 132875296 133417488 133524712 
2851.952 133207384 132485600 131386040 129938800 128180352 126153096 
2854.845 123902520 121481368 118942720 116337264 113714280 111114872 
2857.738 108573392 106117936 103767952 101537768 99436984 97471256 95645224 
2861.113 93963072 92428520 91045832 89817256 88742592 87817424 87032816 
2864.488 86375984 85830832 85380888 85009024 84698072 84431056 84189008 
2867.864 83950592 83693712 83393264 83025736 82570072 82008624 81330168 
2871.239 80529224 79607400 78573520 77443904 76241544 74993632 73731712 
2874.614 72487808 71291504 70170760 69148272 68242000 67465632 66827044 
2877.989 66329532 65972196 65750168 65656460 65683672 65825804 66078888 
2881.365 66440800 66911256 67489320 68172832 68957616 69837328 70805432 
2884.740 71855088 72979888 74174616 75433016 76747736 78110320 79511136 
2888.115 80940112 82389784 83853968 85328136 86809512 88294264 89778384 
2891.490 91256120 92722000 94171200 95600752 97009880 98398832 99769680 
2894.865 101124880 102467832 103802328 105132200 106460824 107789192 
2897.759 109116264 110438008 111750240 113050976 114342000 115630936 
2900.652 116928752 118247984 119598816 120985512 122407128 123858848 
2903.545 125334840 126831232 128347960 129887896 131454736 133051288 
2906.438 134678672 136337664 138029536 139758528 141531296 143354528 
2909.331 145232080 147162624 149137984 151144944 153170176 155201728 
2912.224 157231936 159256992 161273248 163273936 165247232 167173888 
2915.117 169030848 170791456 172427008 173909120 175206944 176287040 
2918.010 177115936 177659792 177888160 177777120 177309472 176475184 
2920.903 175271136 173701632 171779808 169530192 166991200 164209504 
2923.796 161239184 158132976 154934048 151675408 148378592 145056592 
2926.689 141720944 138385312 135066784 131786288 128563760 125416352 
2929.582 122355800 119387520 116512544 113729224 111034432 108424928 
2932.475 105897408 103448536 101074904 98774112 96545440 94391440 92317160 
2935.851 90330680 88441912 86659216 84989272 83435056 81995576 80666728 
2939.226 79443216 78320704 77298432 76378808 75569112 74878504 74315312 
2942.601 73884752 73586376 73413784 73355480 73397264 73525736 73729192 
2945.976 73999032 74328280 74708704 75129552 75575816 76027944 76465640 
2949.352 76868240 77217992 77500656 77703808 77815608 77824608 77718552 
2952.727 77486360 77121304 76621712 75992304 75242544 74384944 73431712 
2956.102 72393896 71281936 70104712 68872888 67596888 66286496 64949760 
2959.477 63589884 62205808 60792776 59345960 57862116 56343188 54795756 
2962.853 53231720 51664152 50105272 48563824 47043668 45544120 44061620 
2966.228 42591724 41132248 39684312 38252540 36844520 35469236 34133708 
2969.603 32842330 31595618 30390992 29224892 28094290 26998250 25938560 
2972.978 24919028 23942846 23012384 22127770 21286956 20487150 19726436 
2976.354 19003708 18319506 17674444 17068142 16498271 15961112 15451605 
2979.729 14966186 14503132 14063020 13648110 13260342 12899987 12564316 
2983.104 12247956 11943814 11645876 11350114 11055879 10765444 10483383 
2986.479 10213989 9960729 9725033 9505924 9300635 9105324 8916390 8731157 
2990.337 8548300 8369235 8197639 8038228 7896286 7775439 7676479 7596086 
2994.194 7527643 7462749 7393383 7314323 7224834 7128323 7030857 6938699 
2998.052 6856692 6785942 6724053 6665672 6605618 6539180 6464110 6381453 
3001.909 6293903 6205531 6119832 6039660 5965918 5898705 5837144 5781099 
3005.766 5730567 5686721 5651306 5625325 5608777 5599681 5594411 5588538 
3009.624 5577261 5557963 5530410 5496987 5461184 5427062 5396465 5369191 
3013.481 5342656 5313273 5277619 5234356 5183452 5126686 5066475 5004730 
3017.339 4942290 4879994 4819080 4761758 4711278 4671420 4644192 4629322 
3021.196 4623126 4619677 4612109 4595131 4566099 4526489 4480288 4432585 
3025.053 4388000 4349243 4316613 4288637 4263540 4239416 4215861 4192944 
3028.911 4170830 4149688 4128714 4106604 4081885 4053657 4021953 3987408 
3032.768 3951897 3917392 3885797 3858919 3837658 3822482 3812655 3807005 
3036.626 3803162 3798281 3789090 3772979 3748447 3715529 3676230 3634095 
3040.483 3593467 3558890 3533535 3518470 3512123 3510987 3510453 3505844 
3044.341 3494286 3475248 3451267 3425618 3402575 3385110 3373790 3367245 
3048.198 3362203 3355257 3344205 3328145 3308279 3287412 3268416 3253627 
3052.055 3244447 3241275 3242911 3247585 3253059 3256398 3255329 3248185 
3055.913 3234599 3215805 3194810 3175484 3161165 3153756 3153022 3156226 
3059.770 3159396 3158195 3150151 3134565 3113140 3089679 3068623 3053407 
3063.628 3046333 3047101 3053974 3063084 3069858 3070392 3061249 3041061 
3067.485 3010698 2972765 2930331 2886967 2845042 2805255 2767939 2732527 
3071.343 2699619 2670980 2649244 2636443 2633143 2637476 2644677 2649278 
3075.200 2647477 2637910 2624042 2612075 2609375 2621175 2648944 2689150 
3079.057 2734094 2775509 2805222 2817727 2810391 2783145 2737129 2674147 
3082.915 2597475 2512052 2424912 2345053 2280962 2239462 2222643 2228005 
3086.772 2248588 2275233 2300448 2318602 2327730 2328763 2323266 2312906 
3090.630 2297750 2277465 2252118 2223342 2194335 2169560 2152910 2146417 
3094.487 2149613 2159969 2173389 2186843 2198165 2206957 2213651 2218480 
3098.344 2221144 2219779 2212485 2197599 2174521 2144619 2110789 2076363 
3102.202 2045335 2020601 2004656 1998331 2001660 2013577 2032452 2055988 
3106.059 2081889 2108458 2134263 2158604 2181448 2202028 2219579 2232501 
3109.917 2239195 2238896 2232001 2220478 2207390 2195634 2188108 2185577 
3113.774 2187775 2193470 2201029 2209388 2219013 2230070 2242992 2257180 
3117.632 2270703 2279996 2281828 2273535 2253750 2224408 2189573 2155041 
3121.489 2126938 2110456 2108225 2119379 2140090 2164398 2185877 2198964 
3125.346 2200963 2192071 2175021 2154042 2133930 2118380 2109490 2107759 
3129.204 2112754 2123342 2138192 2155707 2173988 2190739 2203860 2211453 
3133.061 2212752 2208689 2201029 2191705 2182847 2175054 2168394 2162367 
3136.919 2156506 2150679 2145817 2142621 2141189 2141056 2141555 2142055 
3140.776 2143187 2147416 2157405 2175387 2201962 2234066 2266307 2292187 
3144.634 2306444 2306277 2293053 2271369 2246656 2223342 2203427 2186043 
3148.491 2169127 2150279 2129468 2109124 2093209 2085751 2089647 2104796 
3152.348 2128736 2156639 2183879 2205725 2219479 2224108 2220378 2210521 
3156.206 2197832 2185644 2177085 2174055 2176419 2182180 2188408 2191904 
3160.063 2190539 2184645 2176486 2169227 2165830 2167395 2173489 2181981 
3163.921 2191372 2201495 2213718 2230536 2253517 2281395 2309908 2332094 
3167.778 2340522 2331194 2304246 2265341 2223542 2189340 2170325 2169893 
3171.635 2186510 2214317 2245757 2272968 2289489 2290988 2275766 2244291 
3175.493 2199364 2146883 2093975 2049596 2021733 2014642 2028324 2057520 
3179.350 2093243 2125406 2146283 2152144 2144985 2130467 2116449 2110323 
3183.208 2116682 2136028 2166096 2201395 2235265 2261078 2273435 2268338 
3187.065 2244358 2202494 2147582 2086351 2028923 1985083 1962882 1966377 
3190.923 1994803 2041606 2096339 2148182 2187775 2208989 2211586 2198831 
3194.780 2176952 2152444 2130733 2113653 2101533 2092577 2085385 2079459 
3198.637 2076063 2077162 2084320 2097571 2114352 2130101 2139591 2138692 
3202.495 2126072 2103797 2076629 2051527 2034283 2028923 2035714 2052859 
3206.352 2075997 2100368 2122476 2139524 2149980 2152777 2147016 2131932 
3210.210 2106927 2072867 2031520 1986615 1942746 1904406 1875587 1858616 
3214.067 1853158 1857684 1868765 1882742 1896286 1906736 1913159 1915522 
3217.925 1915222 1913858 1913259 1914889 1918617 1923609 1928335 1930498 
3221.782 1928468 1921679 1911228 1898649 1886835 1878482 1875587 1879247 
3225.639 1889963 1906669 1928102 1952831 1978693 2003158 2023930 2038344 
3229.497 2044336 2041040 2028757 2009682 1986615 1962783 1941115 1923775 
3233.354 1911295 1903774 1900679 1901977 1907801 1918717 1934758 1954495 
3237.212 1975431 1993505 2004323 2004689 1993405 1972368 1945974 1919782 
3241.069 1898882 1886602 1883307 1887001 1894056 1901145 1905970 1908133 
3244.927 1908267 1907668 1906836 1905538 1902043 1895254 1884672 1871061 
3248.784 1856652 1844740 1838018 1837952 1844673 1856819 1872126 1888765 
3252.641 1905172 1920048 1933427 1945109 1955094 1963215 1969606 1973600 
3256.499 1974965 1972934 1966111 1953097 1932861 1905305 1871294 1833426 
3260.356 1795562 1761427 1734946 1718679 1713822 1721007 1739437 1767948 
3264.214 1804512 1845671 1887201 1924374 1952664 1969706 1975697 1973500 
3268.071 1968042 1965179 1968907 1980390 1997766 2016473 2031420 2038078 
3271.928 2034982 2023830 2008384 1993605 1983519 1980224 1982820 1988079 
3275.786 1992107 1991008 1982687 1967276 1946707 1924674 1904273 1888299 
3279.643 1877550 1871361 1868166 1866236 1864539 1862642 1861045 1859847 
3283.501 1858183 1854623 1846636 1832129 1811233 1786046 1760795 1740501 
3287.358 1729257 1728692 1737374 1751713 1767249 1781455 1793632 1805810 
3291.216 1820749 1841013 1866003 1893424 1918850 1938353 1950068 1954595 
3295.073 1954395 1953064 1953030 1954661 1956758 1956525 1951699 1941015 
3298.930 1924874 1904706 1882242 1859647 1838584 1821115 1809303 1805244 
3302.788 1810401 1824675 1845771 1870262 1894156 1914690 1931530 1947539 
3306.645 1966510 1992673 2027924 2071036 2117848 2162034 2198332 2222343 
3310.503 2232501 2229670 2215283 2191938 2162034 2128836 2096139 2068306 
3314.360 2049663 2043238 2049663 2066941 2090679 2115117 2134929 2146417 
3318.218 2147882 2139357 2122709 2100634 2076862 2054956 2038744 2031253 
3322.075 2033084 2042339 2054323 2062979 2062646 2051427 2031520 2009316 
3325.932 1992839 1989278 2000861 2023996 2050095 2068972 2071602 2054057 
3329.790 2017871 1969706 1919083 1873990 1841113 1823677 1821681 1833360 
3333.647 1855787 1885370 1917652 1948371 1973234 1989544 1997366 1999164 
3337.505 1999263 2002626 2012346 2028823 2050095 2072135 2091345 2105528 
3341.362 2114651 2120511 2125106 2130534 2137493 2146150 2156806 2169926 
3345.219 2186443 2206990 2231069 2256414 2279630 2297217 2307044 2308609 
3349.077 2303646 2294386 2282827 2268971 2251585 2229237 2201462 2170192 
3352.934 2139491 2114818 2100035 2096738 2103597 2117049 2132598 2147482 
3356.792 2160702 2172557 2183745 2193403 2198798 2196300 2182847 2158038 
3360.649 2124973 2089281 2057786 2035281 2023098 2018936 2018570 2017305 
3364.507 2013111 2006886 2002060 2003125 2012745 2031253 2055589 2080524 
3368.364 2100734 2112554 2114585 2108392 2096639 2083255 2071203 2062380 
3372.221 2057586 2056554 2058185 2061082 2064078 2066308 2066874 2065543 
3376.079 2062147 2056521 2048631 2039077 2028624 2019303 2013743 2014809 
3379.936 2024562 2043870 2070870 2101699 2131133 2154375 2168228 2172324 
3383.794 2169160 2163566 2160535 2163665 2174455 2192004 2213318 2235199 
3387.651 2254483 2269205 2277965 2279663 2273668 2258913 2235465 2204826 
3391.509 2169426 2134030 2103531 2081357 2069105 2065443 2066874 2068938 
3395.366 2068406 2063645 2056154 2049430 2047432 2053158 2067607 2088348 
3399.223 2110756 2130034 2141555 2143287 2136261 2124041 2111155 2101766 
3403.081 2098437 2101167 2108325 2117881 2127770 2137826 2149247 2163333 
3406.938 2180982 2201462 2221943 2239395 2251019 2255748 2255082 2252451 
3410.796 2252118 2257614 2270304 2289389 2312440 2335991 2357412 2374303 
3414.653 2385730 2390028 2385697 2370072 2340788 2296151 2236697 2165797 
3418.510 2089048 2013943 1949070 1901178 1875620 1873956 1895088 1934758 
3422.368 1987513 2046367 2104030 2154542 2193503 2218247 2229237 2228704 
3426.225 2220212 2206890 2191139 2173988 2155341 2134996 2113619 2092876 
3430.083 2075597 2064544 2061448 2066575 2077561 2091178 2103597 2112154 
3433.940 2115384 2113819 2108725 2101799 2094308 2086351 2078127 2069105 
3437.798 2059351 2048697 2038111 2027991 2018803 2011081 2005022 2000528 
3441.655 1998032 1997433 1998365 2000528 2002725 2003524 2001760 1997200 
3445.512 1990442 1983885 1980457 1983785 1996234 2018238 2048464 2083288 
3449.370 2118714 2151145 2177918 2198165 2212386 2221777 2227405 2229337 
3453.227 2225973 2215283 2195068 2164365 2125106 2081690 2039975 2007419 
3457.085 1989877 1990542 2009583 2044203 2089381 2138925 2187209 2229404 
3460.942 2262343 2285126 2297950 2302647 2301814 2297817 2292287 2285825 
3464.800 2277765 2267073 2253284 2237031 2220711 2208722 2205292 2213484 
3468.657 2234100 2264608 2300082 2334725 2362909 2381332 2388962 2387529 
3472.514 2379833 2369339 2358944 2350516 2345552 2344519 2348184 2356079 
3476.372 2367740 2381232 2393826 2402622 2405021 2399490 2386696 2368939 
3480.229 2350016 2333959 2324199 2322167 2327364 2337491 2348417 2355879 
3484.087 2356779 2349017 2333160 2312074 2290222 2273601 2267306 2273801 
3487.944 2292254 2318369 2345785 2367906 2380733 2383032 2376768 2366174 
3491.802 2355247 2346485 2340988 2337491 2334093 2330228 2326564 2325098 
3495.659 2328529 2338257 2353148 2369672 2382598 2386896 2379433 2359578 
3499.516 2329862 2294919 2259845 2229470 2207223 2194802 2192071 2197333 
3503.374 2208589 2223442 2239395 2254416 2266174 2272202 2270903 2260711 
3507.231 2241327 2213951 2181148 2147482 2117049 2094341 2081590 2079359 
3511.089 2086584 2101366 2122043 2147582 2177085 2209621 2243725 2276932 
3514.946 2305878 2327563 2340655 2345885 2346019 2345785 2348984 2356846 
3518.803 2366707 2371837 2363742 2334459 2280030 2202794 2111921 2021433 
3522.661 1946673 1899348 1882642 1891128 1912926 1935357 1948604 1949502 
3526.518 1941315 1931763 1929300 1939518 1963981 1999829 2042572 2088382 
3530.376 2136061 2186276 2239761 2295751 2349683 2394259 2420647 2421314 
3534.233 2393326 2340289 2272835 2206291 2157472 2139491 2156639 2204592 
3538.091 2271936 2343753 2404121 2441672 2449170 2425312 2374070 2303546 
3541.948 2223875 2143886 2071469 2011180 1965812 1936322 1924308 1932994 
3545.805 1966178 2026793 2113453 2218047 2327197 2423579 2491323 2519383 
3549.663 2503920 2449669 2368639 2278797 2198665 2142587 2116416 2116549 
3553.520 2133630 2157339 2181381 2203893 2226473 2250686 2276765 2301481 
3557.378 2319835 2327097 2321034 2303879 2282261 2263176 2253284 2254216 
3561.235 2261810 2267772 2261411 2233400 2177352 2091278 1977361 1844241 
3565.093 1706005 1583476 1502674 1486149 1542208 1657807 1803714 1945941 
3568.950 2060083 2135795 2173889 2182680 2173988 2160202 2150579 2150413 
3572.807 2161001 2179650 2202761 2226973 2251185 2275799 2302180 2330628 
3576.665 2360244 2388662 2413184 2431676 2444238 2452435 2459033 2466730 
3580.522 2476361 2486624 2494322 2494422 2481592 2451269 2400456 2327996 
3584.380 2235465 2127803 2013444 1905837 1822812 1781289 1791503 1849731 
3588.237 1939884 2040774 2135795 2215616 2277298 2321267 2348550 2360510 
3592.094 2358412 2345319 2326897 2310674 2305378 2316437 2343753 2380200 
3595.952 2414317 2434942 2433575 2408486 2364242 2310474 2258479 2219412 
3599.809 2201529 2207423 2236131 2282761 2341555 2406120 2470829 2530115 
3603.667 2577843 2608775 2617375 2600375 2557844 2494389 2420014 2348317 
3607.524 2293819 2266640 2268505 2291988 2324266 2352748 2368139 2366807 
3611.382 2350249 2324332 2297617 2278830 2273768 2281529 2295485 2305578 
3615.239 2302247 2279064 2234466 2171857 2101400 2038377 2000528 2002958 
3619.096 2050495 2134629 2237097 2338989 2425245 2489524 2532714 2559111 
3622.954 2574910 2585542 2593909 2600075 2600075 2587442 2554345 2493722 
3626.811 2402955 2287691 2169659 2085984 2073500 2143620 2270703 2411951 
3630.669 2533981 2623509 2680248 2712022 2729026 2742097 2757569 2776676 
3634.526 2795184 2806122 2804421 2789014 2763571 2735295 2712155 2698885 
3638.384 2695185 2695518 2691984 2677015 2647844 2607409 2563977 2527249 
3642.241 2504220 2496055 2497255 2496422 2480259 2436674 2356146 2233334 
3646.098 2068206 1868332 1649093 1433754 1251219 1130911 1098223 1167621 
3649.956 1334400 1573366 1844340 2108325 2337124 2517284 2646944 2729360 
3653.813 2771374 2781678 2771307 2752867 2739296 2740496 2758703 2789448 
3657.671 2825898 2862919 2898808 2934868 2973632 3017905 3067889 3121783 
3661.528 3174649 3220646 3254294 3271487 3270953 3253927 3223349 3181959 
3665.385 3131495 3071893 3000522 2913485 2806922 2678181 2530448 2374269 
3669.243 2229537 2119945 2060150 2046633 2061082 2083621 2099003 2100035 
3673.100 2086917 2063712 2039809 2028024 2040009 2078760 2135595 2198798 
3676.958 2264908 2338223 2426212 2533548 2659245 2794183 2924260 3033621 
3680.815 3112038 3156192 3169242 3157360 3127290 3083373 3028048 2961789 
3684.673 2884966 2799652 2710155 2623842 2549979 2499854 2482426 2501754 
3688.530 2553012 2624176 2701686 2776809 2846676 2912985 2977435 3039927 
3692.387 3099090 3153789 3203722 3249888 3293989 3336258 3374825 3405280 
3696.245 3421210 3416100 3386345 3332051 3256765 3166706 3070559 2977169 
3700.102 2897507 2842540 2821463 2838572 2890536 2967060 3053774 3136234 
3703.960 3203922 3248720 3266313 3254628 3213669 3144945 3051338 2937236 
3707.817 2808356 2672814 2542346 2431443 2356846 2333526 2368239 2453701 
3711.675 2569010 2687750 2787280 2857049 2897407 2915753 2920357 2918622 
3715.532 2914953 2911083 2907147 2901877 2894172 2883098 2868389 2850278 
3719.389 2829734 2808590 2788814 2773475 2764905 2763838 2768706 2775509 
3723.247 2779044 2776176 2767373 2758569 2758802 2778477 2823364 2891603 
3727.104 2971931 3048235 3106265 3135600 3131428 3093150 3023277 2925927 
3730.962 2806322 2671847 2530581 2391061 2262343 2154741 2080092 2052259 
3734.819 2082589 2171624 2302180 2446237 2575843 2676148 2746798 2795184 
3738.677 2830034 2858883 2886200 2912251 2935801 2954483 2966226 2970329 
3742.534 2966526 2954817 2935535 2909849 2879896 2849044 2819762 2791215 
3746.391 2761304 2726226 2680815 2619309 2537180 2433509 2315538 2200230 
3750.249 2113486 2079559 2110722 2201695 2331761 2474361 2606308 2714256 
3754.106 2792649 2841473 2863452 2862285 2842107 2807956 2767373 2729860 
3757.964 2706154 2706654 2737062 2795617 2871557 2948845 3010398 3043898 
3761.821 3045799 3018973 2972198 2917721 2869856 2841473 2840072 2863386 
3765.678 2899475 2931165 2943808 2930698 2894572 2846343 2801787 2778210 
3769.536 2788247 2832902 2902110 2980838 3055576 3120148 3174883 3224117 
3773.393 3272556 3322068 3370384 3411324 3436839 3438509 3411625 3355691 
3777.251 3275961 3182560 3090080 3015169 2969996 2958419 2973632 3002891 
3781.108 3031852 3051038 3056077 3047935 3031752 3014335 3004293 3007396 
3784.966 3025946 3058412 3100926 3148583 3197547 3245615 3290751 3331483 
3788.823 3365976 3392824 3410723 3420007 3421911 3417369 3407851 3393792 
3792.680 3373723 3346409 3310683 3266580 3217040 3167206 3122885 3088578 
3796.538 3064018 3042930 3015870 2973966 2911884 2829734 2733694 2638010 
3800.395 2565377 2540213 2577343 2667480 2782145 2889602 2971931 3025112 
3804.253 3053641 3066154 3074496 3091248 3127357 3187834 3267281 3351618 
3808.110 3425417 3478922 3509217 3518570 3512056 3495088 3472208 3445289 
3811.968 3413495 3373522 3321033 3253560 3171579 3082038 2999321 2940872 
3815.825 2919356 2932999 2966026 2998120 3014602 3010098 2987511 2956017 
3819.682 2927896 2917788 2934367 2974399 3022543 3062717 3086676 3095453 
3823.540 3094885 3091748 3092182 3100492 3119047 3147848 3183862 3221447 
3827.397 3253927 3275393 3281970 3272155 3247751 3213035 3175217 3143276 
3831.255 3125521 3125821 3142442 3167841 3192039 3205624 3202453 3181025 
3835.112 3143476 3095486 3044231 2997653 2961188 2938537 2929263 2930364 
3838.969 2937369 2945976 2954083 2962156 2972131 2987944 3013268 3050704 
3842.827 3100692 3160531 3224518 3285810 3338095 3377630 3403076 3414898 
3846.684 3413829 3400504 3374057 3333186 3276195 3201319 3108067 2997987 
3850.542 2874592 2746298 2628809 2548745 2541180 2632576 2813492 3033587 
3854.399 3237970 3397966 3510286 3584480 3630486 3654778 3660191 3647360 
3858.257 3616520 3569146 3508783 3441314 3372988 3310916 3259469 3220379 
3862.114 3191906 3171045 3156226 3148917 3153522 3173381 3206326 3243612 
3865.971 3271688 3277830 3254027 3197447 3112339 3011466 2918189 2859450 
3869.829 2854480 2900776 2976201 3054375 3119047 3166172 3200150 3228757 
3873.686 3259102 3293855 3330515 3362269 3383173 3390386 3383540 3364340 
3877.544 3335524 3300466 3263075 3228624 3203255 3191739 3195143 3208262 
3881.401 3222982 3230560 3226254 3210264 3188534 3171912 3173715 3207060 
3885.259 3275961 3370784 3470104 3553445 3608635 3633293 3631556 3608836 
3889.116 3570850 3522612 3468969 3416668 3372788 3344372 3335357 3345274 
3892.973 3369215 3400404 3431529 3456744 3471941 3475248 3466263 3445088 
3896.831 3412259 3368514 3314689 3252959 3187633 3124320 3069524 3028048 
3900.688 3001156 2987110 2982907 2985776 2995451 3014302 3046233 3094318 
3904.546 3158595 3235567 3319664 3405580 3488608 3564870 3630754 3682746 
3908.403 3717367 3733074 3730166 3713223 3689496 3667576 3653976 3651770 
3912.260 3658520 3667475 3670215 3660525 3636367 3600884 3561162 3526887 
3916.118 3505543 3500098 3507714 3521443 3535239 3545461 3552443 3558055 
3919.975 3564001 3568712 3568077 3556852 3530863 3489543 3437674 3383607 
3923.833 3339697 3316459 3319096 3345474 3387681 3435804 3481193 3519639 
3927.690 3549803 3572587 3589725 3601786 3608535 3608268 3599147 3580839 
3931.548 3555282 3527389 3503706 3490746 3493117 3511889 3545394 3589659 
3935.405 3639642 3690298 3736316 3773247 3797345 3805668 3796644 3770941 
3939.262 3730233 3679171 3624506 3573656 3535005 3515096 3516700 3537043 
3943.120 3568344 3601485 3628682 3645489 3651704 3648563 3637737 3619594 
3946.977 3593367 3558522 3516466 3472676 3435503 3414864 3418838 3450131 
3950.835 3505443 3576362 3651904 3721110 3777090 3816599 3840299 3851832 
3954.692 3855442 3854774 3852367 3850261 3849859 3852367 3858819 3869617 
3958.550 3883892 3899504 3913914 3925315 3932303 3935714 3937185 3938556 
3962.407 3941398 3945477 3950025 3953870 3955976 3956143 3954438 3951028 
3966.264 3945978 3938455 3927923 3914015 3897198 3878877 3860991 3845246 
3970.122 3832510 3822482 3813925 3804866 3793970 3780500 3765125 3749183 
3973.979 3735614 3727393 3728195 3741028 3767231 3806538 3856077 3909969 
3977.837 3961259 4003159 4030748 4041785 4037805 4022722 4001520 3978714 
3981.694 3956946 3937252 3919732 3904386 3892082 3884594 3883490 3888672 
3985.552 3898167 3907763 3912610 3908866 3895927 3876302 3856178 3842405 
3989.409 3840901 3854372 3881284 3916355 3952265 3982626 4002825 4011686 
3993.266 4011051 4005198 3998644 3995534 3998711 4008844 4024194 4042152 
3997.124 4059310 4072253 4078708 4076935 4067069 4050681 4029745 4007372 
##END=
