##TITLE=mc_2 Sep 02 11:59:21 2026 (GMT+02:00)
##JCAMP-DX=5.01  $$ Nicolet v. 970
##DATATYPE=INFRARED SPECTRUM
##ORIGIN=Vojna akademija
##OWNER=Nicolet
##LONGDATE=2026/09/02
##TIME=11:59:46
##SPECTROMETER/DATA SYSTEM=Nicolet iS20
##DATA PROCESSING=
Ratio against background
%Transmittance->Absorbance
Truncated
ElementMultiply or ElementDivide
##COMMENTS=
Number of sample scans: 8
Collection length: 11,90 sec
Sample gain: 8,0
Background collected on: Wed Sep 02 11:53:24 2026 (GMT+02:00);
Number of background scans: 8
Background gain: 8,0
Sample spacing:  1,000
Number of scan points: 12415
Resolution points: 8286
Number of FFT points: 65536
Apodization: N-B strong;
Phase correction: Mertz;
Laser frequency: 15798,00 cm-1
Number of rejected sample scans: 0
Number of rejected background scans: 0
Bench serial number: BER2010005;
##RESOLUTION= 4,000
##XUNITS=1/CM
##YUNITS=ABSORBANCE
##FIRSTX=400.156891
##LASTX=4000.123047
##FIRSTY=0.020400
##MAXX=4000.123047
##MINX=400.156891
##MAXY=0.155540
##MINY=0.000502
##XFACTOR=1.000000
##YFACTOR=1.000000E-009
##NPOINTS=7468
##DELTAX=0.482117
##ZPD=6100
##XYDATA=(X++(Y..Y))
400.157 20400356 18568420 16192481 13435591 10565229 7905565 5729660 4237408 
404.014 3493986 3448528 3963366 4870176 6024003 7318333 8687852 10053191 
407.871 11269889 12136932 12418739 11958562 10772509 9096730 7325881 5877445 
411.728 5107039 5175572 6029816 7409729 8964689 10345255 11316445 11803383 
415.585 11847237 11555388 11042964 10427753 9816768 9314751 9029707 9024937 
419.442 9285199 9716968 10208764 10673237 11050747 11306786 11409638 
422.816 11337462 11085111 10677278 10175793 9667467 9242753 8961443 8838168 
426.673 8842429 8914970 8979404 8963945 8822140 8532485 8104558 7570832 
430.530 6987957 6432363 5997698 5792717 5908076 6399610 7259502 8403353 
434.387 9660251 10787929 11545350 11740468 11330830 10435185 9293831 8153138 
438.244 7184475 6448707 5895783 5408710 4861229 4182038 3390820 2608175 
442.101 2011081 1780956 2015075 2691784 3676097 4786247 5846984 6726947 
445.958 7363119 7749128 7927465 7967589 7952098 7950479 7998941 8097435 
449.815 8208512 8269228 8202028 7946463 7479873 6839559 6112204 5414044 
453.672 4849334 4479719 4325883 4372570 4589271 4932638 5351479 5782073 
457.529 6146783 6384849 6481564 6490880 6515164 6682765 7104645 7836364 
461.386 8859202 10060754 11259790 12240970 12843944 13011548 12794529 
464.761 12313671 11711806 11105641 10552566 10051530 9559506 9029740 8436933 
468.617 7796590 7156044 6581766 6135962 5870224 5820924 6002435 6399845 
472.474 6954759 7570124 8117217 8475956 8575504 8405718 8026549 7549827 
476.331 7128895 6909779 6997992 7421458 8118669 8954272 9760478 10394868 
480.188 10747578 10767584 10459386 9877336 9111550 8271253 7479368 6845248 
484.045 6459435 6378191 6606829 7100098 7770581 8520287 9251384 9887030 
487.902 10373420 10668177 10743978 10585667 10198520 9612280 8884227 8098515 
491.759 7344416 6710795 6261026 6020879 5980329 6104542 6350116 6669037 
495.616 7012875 7327735 7551074 7629064 7530913 7269779 6903181 6530569 
499.473 6269060 6217060 6438853 6932302 7629536 8408150 9143594 9744551 
503.330 10172571 10437018 10566213 10583664 10495263 10293035 9969442 
506.705 9532646 9015532 8467779 7940018 7468884 7066183 6726846 6441140 
510.562 6207447 6038652 5957923 5984495 6124671 6364910 6675801 7018431 
514.419 7352470 7640260 7843820 7929625 7871284 7661101 7319209 6899915 
518.276 6483212 6148430 5955975 5920436 6007541 6146178 6259715 6295046 
522.132 6238001 6116303 5986746 5909587 5921007 6019938 6165267 6297904 
525.989 6361379 6332431 6226404 6087304 5961114 5876538 5837211 5827607 
529.846 5823644 5808197 5781535 5761489 5777808 5857832 6018224 6256320 
533.703 6550751 6863223 7148230 7362344 7472390 7465918 7354020 7169485 
537.560 6957621 6771032 6653930 6630682 6705276 6861775 7074603 7317592 
541.417 7571742 7824557 8063442 8271795 8422812 8483625 8427947 8245926 
545.274 7956047 7604954 7258997 6979270 6802501 6729976 6730447 6755484 
549.131 6757234 6706891 6599966 6454861 6299719 6164293 6069160 6022659 
552.988 6023298 6061936 6121949 6178744 6205229 6172930 6061633 5869116 
556.845 5614449 5338430 5091249 4924126 4870712 4943061 5131983 5415756 
560.702 5768004 6161436 6569925 6961156 7293667 7521911 7601448 7506134 
564.559 7240230 6848883 6408958 6010733 5738625 5640933 5720528 5934107 
568.416 6213732 6481497 6676372 6771100 6770427 6705613 6616383 6542039 
572.273 6506520 6515332 6555393 6600336 6616080 6570161 6442317 6231614 
576.130 5961484 5673696 5421861 5255887 5208098 5292444 5501450 5807861 
579.986 6165402 6517788 6801121 6955533 6942503 6747879 6393457 5932629 
583.843 5451957 5050685 4816466 4805745 5020316 5408073 5873381 6311654 
587.700 6629706 6768811 6719544 6514963 6218539 5899242 5621867 5428169 
591.557 5331386 5320082 5365266 5431054 5484740 5507390 5493128 5449508 
595.414 5391634 5337356 5300460 5286574 5292813 5311361 5334304 5358389 
599.271 5386971 5427465 5487021 5565413 5653857 5736106 5794799 5815921 
603.128 5794027 5731641 5636301 5517088 5380160 5231103 5077034 4931130 
606.985 4813116 4744507 4740788 4801825 4910186 5030975 5124640 5162629 
610.842 5134397 5055077 4958478 4886293 4869974 4922920 5037009 5188951 
614.699 5348795 5492726 5610489 5707468 5801213 5913853 6065531 6265733 
618.556 6509917 6777696 7037053 7246800 7364399 7358873 7215434 6945837 
622.413 6585097 6190776 5824853 5540176 5369895 5317633 5360804 5457628 
626.270 5563735 5640731 5667049 5640094 5574140 5495981 5435282 5422365 
630.127 5477391 5605689 5792549 6007138 6206506 6345409 6393524 6341340 
633.984 6207111 6029244 5857059 5732447 5675710 5682894 5729425 5782644 
637.840 5812596 5805074 5763571 5706831 5659496 5646874 5685412 5778513 
641.697 5916674 6077560 6230606 6339391 6372744 6311452 6158512 5941094 
645.554 5709516 5525007 5437765 5474169 5623411 5841174 6056862 6201464 
649.411 6229295 6131459 5938105 5707300 5506685 5388044 5378550 5471754 
653.268 5634992 5818238 5970822 6054947 6050142 5959099 5803429 5621364 
657.125 5454541 5341751 5310958 5372579 5518900 5726370 5965045 6202036 
660.982 6409732 6569622 6668263 6698008 6656353 6547219 6381822 6180122 
664.839 5968169 5773141 5624922 5551385 5573737 5694879 5881240 6067312 
668.696 6187752 6228522 6221262 6210674 6227110 6280625 6364674 6460007 
672.553 6539584 6576888 6555427 6473930 6345375 6193096 6043423 5917581 
676.410 5826297 5767198 5726974 5685949 5626466 5540243 5433134 5324912 
680.267 5240896 5206455 5234255 5319277 5440281 5567595 5671379 5731608 
684.124 5745373 5725329 5694409 5676213 5688030 5737550 5822133 5931790 
687.981 6052662 6170712 6270741 6339659 6367431 6349779 6292189 6213026 
691.838 6142280 6112910 6154950 6284557 6497977 6775038 7085548 7401438 
695.694 7704202 7991382 8272841 8561580 8864241 9173136 9467114 9720696 
699.551 9911302 10031151 10089070 10108028 10114267 10130174 10168399 
702.926 10230102 10310204 10401926 10502426 10614968 10747273 10907511 
706.301 11102310 11335285 11607351 11918306 12269088 12659518 13088066 
709.676 13549102 14031433 14519131 14998185 15457854 15896460 16322229 
713.051 16752893 17211494 17722830 18311212 18994016 19781294 20673402 
716.425 21660470 22722574 23831068 24953944 26056088 27103864 28068132 
719.800 28920104 29632398 30177760 30530956 30676012 30610268 30347712 
723.175 29915040 29348242 28686070 27963486 27215502 26474086 25767404 
726.550 25120846 24548906 24055950 23632262 23258864 22913140 22574704 
729.925 22231998 21882452 21529846 21177910 20827752 20476036 20118600 
733.300 19756604 19399898 19067754 18784576 18570358 18434128 18368622 
736.674 18353654 18359324 18356384 18326488 18262830 18171574 18065208 
740.049 17958040 17859354 17772292 17693978 17617402 17534148 17435802 
743.424 17315788 17170540 17001428 16815678 16626941 16453255 16311254 
746.799 16213357 16161185 16144402 16140688 16123392 16065177 15946573 
750.174 15761307 15516535 15231133 14929903 14640259 14384370 14175565 
753.548 14017196 13901784 13814826 13737326 13652110 13545375 13410815 
756.923 13249274 13068739 12882273 12703733 12548116 12427605 12349873 
760.298 12318511 12331567 12382532 12461225 12557495 12660133 12759519 
763.673 12848211 12918931 12965220 12982665 12968020 12922482 12853535 
767.048 12775932 12708509 12671834 12680260 12736453 12828074 12929684 
770.423 13010490 13040911 13004993 12904459 12760098 12603711 12467396 
773.797 12374998 12332897 12330238 12342680 12344180 12312819 12239334 
777.172 12128652 11996267 11860722 11736248 11628893 11534189 11440458 
780.547 11334062 11205658 11053840 10886548 10716129 10557692 10422119 
783.922 10313597 10230407 10168026 10121254 10087950 10068383 10061398 
787.297 10061228 10055972 10027217 9955880 9829612 9648088 9426546 9191918 
791.154 8978321 8813518 8714220 8681633 8705363 8767196 8848685 8935838 
795.010 9018137 9088270 9138958 9162747 9155573 9118959 9066752 9023583 
798.867 9020437 9087831 9244276 9490311 9807955 10166975 10530669 10867795 
802.724 11159692 11400828 11595202 11750137 11869575 11951137 11988501 
806.099 11975830 11912892 11810362 11688660 11572980 11490434 11462911 
809.474 11501118 11605071 11763447 11956723 12160954 12354100 12516877 
812.849 12635708 12703903 12720519 12689130 12616809 12511659 12382328 
816.224 12236471 12080817 11919430 11753405 11581556 11400284 11207902 
819.598 11007449 10808582 10628380 10486438 10396666 10362323 10370671 
822.973 10395749 10403012 10362662 10257242 10087069 9868930 9629761 9397698 
826.830 9192121 9023617 8894001 8803441 8753774 8750528 8799993 8904113 
830.687 9055012 9234766 9416761 9575019 9689591 9752989 9769864 9753124 
834.544 9716257 9667230 9607775 9534881 9447169 9349316 9253855 9177401 
838.401 9136826 9140176 9184744 9255785 9333743 9399188 9439583 9453873 
842.258 9449572 9438262 9430610 9432100 9441378 9454043 9464947 9473582 
846.115 9484588 9508092 9553815 9629083 9734182 9861710 9997142 10124476 
849.972 10228982 10299956 10333718 10331647 10299041 10242891 10169281 
853.347 10083203 9987411 9884827 9777862 9669364 9563435 9463118 9371966 
857.204 9292816 9229045 9185387 9166876 9176825 9215880 9278802 9354157 
861.060 9425395 9475173 9489363 9461018 9393838 9300703 9202511 9120245 
864.917 9071827 9067598 9108368 9186165 9286384 9394278 9495832 9584131 
868.774 9658895 9726693 9796332 9876285 9969509 10071571 10170977 10252560 
872.631 10302942 10314920 10289778 10236921 10170638 10103687 10042849 
876.006 9987784 9932930 9871641 9801415 9727066 9660590 9617226 9610214 
879.863 9646903 9727337 9845576 9991886 10155476 10325234 10487490 10626717 
883.720 10725264 10765987 10738510 10644543 10500831 10336670 10191837 
887.095 10102770 10093682 10172164 10326592 10529582 10742382 10927116 
890.470 11049524 11085824 11027534 10880942 10667329 10417877 10172096 
893.844 9965475 9822631 9751667 9741670 9767797 9798805 9808837 9783047 
897.701 9720933 9631861 9531461 9433014 9344644 9270441 9212732 9174050 
901.558 9158551 9168602 9200278 9241095 9272845 9274402 9231043 9141530 
905.415 9020877 8896504 8798708 8754180 8775243 8858999 8988875 9141766 
909.272 9294678 9428442 9531833 9599103 9629354 9624374 9588941 9532172 
913.129 9465218 9402675 9356561 9334353 9336486 9357035 9384730 9406839 
916.986 9414391 9402066 9370781 9326363 9278192 9237507 9215677 9223495 
920.843 9267496 9349282 9463931 9600661 9744822 9881742 10000838 10097853 
924.700 10175657 10241975 10306505 10377390 10457824 10546658 10639314 
928.075 10727948 10804710 10863140 10899222 10913186 10910399 10902042 
931.450 10901702 10922598 10970781 11041333 11118117 11176181 11192568 
934.824 11154491 11066688 10950936 10840787 10768535 10750805 10783310 
938.199 10841907 10892019 10900479 10851488 10750568 10624034 10506024 
941.574 10428602 10410445 10452461 10540073 10649636 10758617 10848226 
944.949 10907647 10933471 10926505 10891339 10837049 10777909 10731038 
948.324 10715313 10744997 10823699 10940912 11072296 11186618 11251799 
951.698 11246596 11167070 11028724 10861306 10702205 10587432 10540616 
955.073 10568895 10661182 10794282 10936291 11057069 11136916 11167511 
958.448 11154083 11112439 11062881 11023082 11004798 11012512 11043508 
961.823 11091297 11148644 11210146 11271317 11328552 11378140 11415489 
965.198 11437635 11443010 11434165 11416271 11395692 11377018 11361373 
968.573 11346441 11328075 11304541 11277064 11250370 11229594 11216946 
971.947 11207459 11190630 11152247 11081405 10976354 10847037 10712698 
975.322 10597754 10522828 10497911 10520112 10575007 10641929 10699080 
978.697 10731038 10729204 10692084 10621963 10522963 10399381 10255919 
982.072 10099989 9942455 9797856 9683629 9615465 9604116 9652425 9752311 
985.929 9886454 10029998 10157444 10245572 10278819 10252153 10171418 
989.304 10051563 9912319 9776133 9663198 9588161 9560861 9584605 9656626 
993.160 9767526 9903742 10046816 10177489 10280041 10344236 10368567 
996.535 10360932 10336025 10310000 10295818 10299956 10320553 10349938 
999.910 10378204 10397073 10402706 10395648 10379833 10360694 10343932 
1003.285 10335550 10343049 10374811 10437969 10536338 10666242 10814459 
1006.660 10958717 11074302 11138139 11136848 11071480 10957392 10818671 
1010.035 10681591 10569167 10494958 10463798 10472963 10515393 10582612 
1013.409 10666071 10758379 10852031 10939995 11015537 11073044 11109482 
1016.784 11123113 11114887 11086436 11040891 10983252 10920763 10862835 
1020.159 10820064 10800872 10809601 10844082 10896503 10954062 11003269 
1023.534 11032666 11034603 11005885 10947776 10864465 10762828 10653813 
1026.909 10552396 10475305 10440718 10462067 10543773 10679485 10852337 
1030.284 11038172 11209772 11344808 11427667 11451616 11418482 11335625 
1033.660 11213818 11065566 10904522 10744114 10595819 10468381 10365344 
1037.035 10286317 10228168 10187835 10164701 10161480 10181695 10227524 
1040.410 10295105 10373352 10444248 10487965 10488848 10439632 10345357 
1043.785 10220943 10088357 9969205 9880963 9834324 9832256 9871370 9944150 
1047.643 10042578 10157308 10279057 10399211 10507314 10593340 10647192 
1051.018 10661454 10633134 10567266 10477239 10383396 10312137 10287573 
1054.393 10324284 10421101 10559288 10705194 10817041 10860694 10816191 
1057.768 10687092 10498624 10291882 10112030 9994192 9959610 10009890 
1061.144 10130954 10296361 10475745 10640027 10764119 10832837 10839971 
1064.519 10791191 10700337 10588146 10476832 10380512 10304334 10242043 
1067.894 10180542 10106196 10012942 9904284 9793180 9694877 9621122 9575053 
1071.752 9552392 9545144 9548836 9567195 9612382 9698807 9836459 10023352 
1075.609 10243977 10471877 10675479 10829474 10916957 10933165 10882540 
1078.984 10776415 10630519 10463221 10299753 10166533 10088086 10079879 
1082.359 10140044 10246555 10359405 10435389 10435661 10341488 10159716 
1085.735 9919471 9661640 9424718 9239065 9119095 9066617 9075955 9138383 
1089.592 9243667 9378060 9523570 9655169 9745974 9774677 9732386 9628032 
1093.450 9484419 9332558 9198857 9095748 9020031 8957316 8889401 8805944 
1097.307 8710231 8618290 8552321 8530187 8558978 8630795 8727336 8825589 
1101.164 8908747 8970542 9014619 9049937 9083770 9115779 9136826 9131344 
1105.022 9084887 8991581 8859371 8709723 8572293 8478118 8447642 8485517 
1108.879 8578748 8702963 8828396 8930697 8998753 9036540 9059512 9087831 
1112.737 9137672 9213680 9307203 9397766 9462169 9480389 9443849 9357543 
1116.594 9239268 9115373 9010525 8946086 8933065 8971117 9049498 9151512 
1120.452 9257342 9349824 9417607 9457395 9473176 9474157 9470873 9471516 
1124.309 9478493 9488923 9495663 9492648 9476800 9451062 9423634 9404605 
1128.166 9401151 9414391 9438398 9462711 9475749 9470771 9448185 9416625 
1132.024 9389504 9380836 9401558 9455871 9540470 9645819 9759766 9868964 
1135.881 9961712 10030676 10070859 10081710 10065603 10028167 9977172 
1139.256 9921878 9872523 9837849 9825545 9840391 9883234 9951066 10036542 
1143.114 10130174 10220909 10299787 10361644 10406507 10439326 10468313 
1146.489 10502052 10546115 10600878 10661522 10720816 10770437 10805322 
1149.864 10824922 10833381 10836404 10840311 10849177 10863752 10882064 
1153.240 10900444 10914681 10921170 10917399 10901906 10874997 10838680 
1156.615 10796761 10754066 10715620 10684613 10661522 10644543 10631063 
1159.990 10619620 10611879 10612523 10627565 10660231 10709065 10765037 
1163.365 10814901 10843199 10838849 10799173 10731446 10649568 10570932 
1166.741 10510301 10475372 10466106 10475983 10495060 10512711 10520112 
1170.116 10510675 10479514 10423646 10341285 10233358 10103991 9960458 
1173.491 9812837 9670720 9541892 9429933 9334589 9252096 9177569 9107557 
1177.349 9039721 8974804 8914124 8859810 8812469 8771254 8733625 8696336 
1181.206 8656653 8613254 8566920 8520895 8479943 8448386 8428927 8420379 
1185.063 8418217 8414332 8401022 8372647 8329142 8276623 8226780 8193081 
1188.921 8186733 8213138 8270241 8349104 8436291 8517786 8583277 8626773 
1192.778 8647965 8651515 8644619 8634175 8627483 8629478 8643065 8668010 
1196.636 8701610 8738561 8771659 8794279 8801413 8790694 8763950 8725815 
1200.493 8682173 8638704 8599836 8568779 8546644 8534309 8531842 8538906 
1204.350 8553876 8574050 8595342 8612949 8623090 8623055 8612781 8595274 
1208.208 8575469 8560398 8557018 8571651 8608860 8668855 8747147 8834888 
1212.065 8918284 8982516 9015160 9008936 8965028 8892310 8806215 8723246 
1215.923 8657429 8617816 8606258 8619608 8650771 8692618 8738459 8782986 
1219.780 8821464 8849497 8862752 8858120 8834685 8794549 8742481 8684809 
1223.638 8626706 8570840 8517786 8465515 8412170 8356940 8301818 8250080 
1227.495 8205675 8171573 8149594 8140106 8143044 8159013 8189197 8235086 
1231.352 8296516 8370080 8448724 8522213 8579728 8611598 8613727 8587264 
1235.210 8539480 8481699 8426494 8385651 8366837 8373930 8405684 8457744 
1239.067 8523564 8596423 8670714 8742684 8810475 8873879 8932726 8987082 
1242.925 9036303 9078729 9112565 9136115 9148399 9149347 9139973 9122174 
1246.782 9098454 9072876 9050107 9036134 9036507 9055824 9095578 9153881 
1250.640 9225797 9303885 9379685 9446695 9499760 9535694 9553137 9551953 
1254.497 9532239 9495764 9446424 9390249 9335977 9292782 9267191 9262182 
1258.354 9275721 9302463 9335334 9369426 9403386 9439854 9483268 9537050 
1262.212 9601643 9673701 9747093 9815344 9874116 9921946 9960458 9992260 
1266.069 10020266 10046511 10072351 10098565 10127258 10159851 10197943 
1269.444 10241568 10289167 10337823 10384856 10429314 10472182 10516853 
1272.820 10566791 10623525 10684749 10744317 10794486 10827266 10837933 
1276.195 10826756 10799275 10765037 10734570 10717623 10720816 10746288 
1279.570 10791360 10849279 10910842 10965650 11004866 11023727 11021654 
1282.945 11002929 10975335 10947164 10924432 10910127 10903774 10903536 
1286.321 10908225 10919982 10943427 10984476 11046465 11128008 11221332 
1289.696 11315458 11398107 11460699 11501559 11525513 11541777 11560423 
1293.071 11590029 11634509 11695059 11770562 11859257 11960333 12071824 
1296.446 12190328 12308660 12417274 12506373 12568512 12601665 12610260 
1299.822 12603814 12593376 12588192 12593069 12607600 12627350 12647170 
1303.197 12663101 12674597 12683024 12691314 12700969 12711068 12717721 
1306.572 12715231 12698172 12663442 12611762 12547980 12480354 12418365 
1309.947 12369646 12338419 12323965 12320386 12317932 12306581 12278972 
1313.323 12233471 12174653 12112093 12057311 12018646 11999878 11998175 
1316.698 12005873 12012754 12008769 11988228 11949877 11897771 11838384 
1320.073 11779789 11727941 11687332 11660273 11646591 11644889 11652581 
1323.448 11665855 11681444 11697033 11712521 11730290 11754221 11788062 
1326.824 11833073 11887487 11945143 11998175 12039903 12066850 12080783 
1330.199 12087836 12096932 12116216 12150937 12203244 12271916 12354987 
1333.574 12451165 12560360 12683399 12820124 12968360 13123206 13278448 
1336.949 13428277 13568826 13699674 13822249 13938495 14047859 14147769 
1340.325 14233423 14301322 14350842 14384747 14408381 14428555 14451985 
1343.700 14484495 14530574 14592592 14670691 14762997 14865745 14974862 
1347.075 15085723 15195857 15304131 15411436 15519042 15626539 15730694 
1350.450 15825115 15901478 15953414 15979229 15984248 15980294 15982151 
1353.826 16004324 16055482 16138213 16249061 16383918 16540641 16722212 
1357.201 16934932 17184916 17474400 17799804 18154298 18533288 18941750 
1360.576 19398754 19934528 20582682 21360282 22250202 23195284 24117452 
1363.951 24944890 25633432 26173686 26580242 26881240 27109824 27304654 
1367.327 27509634 27769524 28130276 28627564 29280962 30095082 31065880 
1370.702 32191764 33483640 34969444 36686936 38663144 40884372 43260780 
1374.077 45619416 47752464 49473608 50681108 51357792 51529264 51224712 
1377.452 50457232 49235508 47587468 45585080 43345928 40998808 38663144 
1380.828 36420464 34308012 32336876 30502804 28797230 27209152 25722614 
1384.203 24313784 22952506 21609134 20265148 18924168 17616160 16388942 
1387.578 15286043 14328479 13507023 12795894 12167667 11602280 11089699 
1390.953 10626682 10212529 9846492 9527735 9256733 9036303 8868976 8754010 
1394.811 8683187 8640023 8608860 8581418 8559755 8553098 8570908 8613761 
1398.668 8669260 8712799 8719189 8676393 8590205 8480516 8370316 8280812 
1402.526 8223470 8200746 8207060 8232216 8267134 8306884 8351873 8405346 
1406.383 8468793 8541676 8621231 8705092 8791946 8880406 8966753 9043306 
1410.240 9098049 9119568 9102853 9053693 8987353 8925049 8885107 8875671 
1414.098 8893291 8926672 8963439 8997535 9035796 9096831 9207892 9391637 
1417.955 9652933 9964119 10272271 10521843 10688281 10785586 10849042 
1421.330 10914919 11010303 11154287 11357359 11621406 11938161 12288107 
1424.706 12644270 12982836 13292250 13576962 13856285 14159613 14522865 
1428.081 14978052 15543699 16217243 16976070 17786548 18618222 19452704 
1431.456 20282542 21104128 21914268 22708154 23487228 24268476 25089112 
1434.831 26008736 27095858 28393652 29868258 31396754 32823890 34052924 
1438.207 35084632 35987892 36847588 37739668 38710848 39778164 40930644 
1441.582 42141648 43380456 44621084 45849464 47058292 48242868 49399608 
1444.957 50527500 51635084 52744036 53888044 55099512 56393440 57755604 
1448.332 59145520 60520664 61861660 63180400 64512396 65894596 67343968 
1451.708 68843264 70341680 71779024 73101256 74288256 75353520 76332112 
1455.083 77260504 78153280 78979408 79653848 80082040 80236136 80176712 
1458.458 79998968 79765512 79499952 79207112 78890120 78555128 78206552 
1461.833 77837168 77419192 76900072 76209320 75273360 74049320 72549632 
1465.209 70828904 68943488 66915244 64722440 62336404 59749900 56997172 
1468.584 54133628 51228548 48335332 45456444 42559528 39589672 36524864 
1471.959 33434286 30502378 27946312 25875778 24255126 22954916 21834752 
1475.334 20803628 19822320 18893090 18034190 17259794 16567282 15941726 
1478.710 15365504 14827310 14324472 13860904 13440238 13059895 12709396 
1482.085 12376497 12053086 11739822 11445255 11180159 10951785 10758990 
1485.460 10592254 10437256 10282042 10122882 9966662 9828053 9720696 9648122 
1489.318 9598662 9548870 9477713 9375250 9245529 9098657 8943143 8783256 
1493.175 8619574 8454062 8291146 8139465 8011800 7918657 7861601 7828166 
1497.032 7798176 7753007 7686833 7606640 7524642 7449266 7380543 7309505 
1500.890 7224463 7116366 6983244 6829192 6664596 6502282 6354251 6234975 
1504.747 6162209 6160999 6261665 6479546 6773422 7033787 7162108 7137283 
1508.605 7000921 6805665 6594247 6395508 6225463 6091202 5987989 5903307 
1512.462 5820924 5728888 5623915 5512423 5407100 5323604 5274098 5260213 
1516.319 5266552 5266048 5233987 5160952 5056686 4943396 4850038 4804706 
1520.177 4832045 4939207 5102580 5264237 5364226 5377980 5318774 5219869 
1524.034 5114817 5032148 4988909 4988541 5018338 5054239 5068251 5040797 
1527.892 4967593 4856840 4723437 4581536 4444602 4322335 4223724 4161396 
1531.749 4151896 4213854 4356137 4561411 4778944 4946278 5027489 5021087 
1535.607 4949295 4839886 4720120 4613080 4540384 4525920 4593490 4760318 
1539.464 5017501 5317432 5581825 5745105 5785632 5718950 5578570 5401463 
1543.321 5225436 5081326 4986731 4940648 4924830 4912799 4885254 4837473 
1547.179 4778274 4725145 4695468 4700258 4733452 4770502 4774790 4719116 
1551.036 4597977 4428166 4237141 4055497 3908297 3807273 3747579 3709280 
1554.894 3668311 3607934 3528023 3446291 3401773 3455876 3691802 4166950 
1558.751 4801390 5342690 5594378 5580818 5422365 5214906 5007311 4824809 
1562.609 4678788 4574504 4511892 4482866 4469809 4449724 4404836 4329330 
1566.466 4233159 4136006 4065631 4049945 4107808 4238580 4412233 4579058 
1570.323 4693459 4738477 4723738 4670348 4598245 4522304 4454912 4406911 
1574.181 4392451 4427162 4521835 4668573 4832582 4964242 5026718 5017299 
1578.038 4959181 4882373 4810000 4755862 4722398 4703507 4688300 4667803 
1581.896 4639738 4610067 4590443 4592151 4620615 4672257 4735898 4797035 
1585.753 4845347 4876341 4892392 4898759 4899931 4895676 4882406 4854629 
1589.610 4809263 4748459 4679726 4613783 4561378 4531612 4528532 4552907 
1593.468 4601627 4669276 4748761 4830873 4905595 4963170 4996686 5003993 
1597.325 4988742 4957372 4918865 4880831 4848966 4827020 4817471 4822396 
1601.183 4843739 4881636 4933208 4990787 5044149 5082164 5096982 5087896 
1605.040 5061111 5027455 4997725 4979626 4975771 4982743 4994340 5004361 
1608.898 5009355 5008283 5000775 4984686 4955327 4907773 4839082 4752211 
1612.755 4654440 4558800 4480120 4432786 4430242 4479384 4576379 4698550 
1616.612 4809330 4871214 4865016 4794354 4677013 4533721 4382577 4240052 
1620.470 4120351 4034795 3991789 3991221 4020816 4054728 4067236 4042086 
1624.327 3982392 3904720 3829769 3774818 3748481 3752057 3779062 3818103 
1628.185 3855944 3882655 3893119 3886098 3862028 3821212 3763822 3691067 
1632.042 3607266 3521343 3447560 3407851 3429626 3539548 3746242 4019144 
1635.900 4284621 4463884 4523275 4477007 4363232 4218672 4073156 3946848 
1639.757 3850461 3787886 3754397 3739324 3728328 3710048 3677801 3632992 
1643.614 3584413 3549102 3550505 3614716 3763354 3995568 4271270 4510352 
1647.472 4637326 4620649 4477107 4244703 3961259 3657551 3355725 3085008 
1651.329 2889402 2835970 3006661 3422812 3943437 4326585 4466462 4423111 
1655.187 4298575 4162567 4051450 3977878 3938857 3922574 3912744 3893687 
1659.044 3853603 3788755 3703565 3611308 3530362 3481460 3480158 3528691 
1662.901 3610206 3693740 3750052 3760680 3722112 3642582 3536441 3420675 
1666.759 3312919 3232963 3199817 3228290 3322836 3471173 3641914 3795474 
1670.616 3900340 3940963 3919765 3850495 3754965 3657785 3586685 3568611 
1674.474 3618625 3727727 3857615 3961460 4006503 3989849 3929662 3852099 
1678.331 3778962 3723082 3685386 3655413 3616721 3557287 3477385 3394293 
1682.189 3342268 3365876 3508315 3768534 4065998 4268660 4305201 4199568 
1686.046 4017639 3816298 3634062 3495055 3410623 3383774 3406749 3462456 
1689.903 3525451 3569112 3572821 3524249 3422746 3277063 3105931 2933733 
1693.761 2792749 2721924 2754934 2901310 3120949 3336192 3472643 3506111 
1697.618 3458181 3375893 3310182 3306242 3386512 3525184 3645723 3675796 
1701.476 3600383 3450432 3269084 3091915 2948044 2858116 2832668 2867755 
1705.333 2941306 3019207 3069257 3078334 3051272 3004960 2956785 2919723 
1709.191 2898308 2890403 2888068 2883965 2873592 2857916 2841773 2831101 
1713.048 2829600 2836471 2846943 2855181 2860984 2875960 2924026 3032219 
1716.905 3215371 3453872 3692537 3865337 3936483 3910370 3817334 3691802 
1720.763 3562899 3450131 3362770 3303037 3265745 3241910 3221714 3197647 
1724.620 3167240 3131128 3092449 3054642 3022076 2998454 2986510 2986443 
1728.478 2993783 2997053 2979804 2925727 2825331 2681882 2513051 2351848 
1732.335 2242126 2235265 2370271 2637543 2953983 3209563 3344873 3365876 
1736.193 3314355 3233297 3158128 3111705 3106098 3140072 3198715 3256565 
1740.050 3289081 3284708 3246550 3187233 3121182 3060615 3011499 2973832 
1743.907 2943407 2914953 2885166 2853947 2823530 2796818 2775009 2756869 
1747.765 2739163 2720557 2704453 2701886 2727493 2791349 2890670 3004693 
1751.622 3101026 3149884 3138337 3072761 2976201 2878262 2812692 2807289 
1755.480 2876727 3013134 3183127 3337260 3428456 3436271 3367545 3248553 
1759.337 3109669 2981272 2887501 2843307 2853013 2907081 2985742 3063885 
1763.194 3121182 3145646 3133397 3088078 3020007 2944875 2879996 2842907 
1767.052 2843841 2880196 2935835 2989446 3025646 3043063 3055409 3086509 
1770.909 3160698 3287712 3450733 3606497 3709881 3738354 3701226 3624940 
1774.767 3537911 3458748 3394026 3340232 3289716 3236001 3179489 3127423 
1778.624 3092383 3085942 3112773 3165971 3228891 3282671 3314121 3320999 
1782.482 3309948 3290884 3270953 3252258 3231127 3201686 3159863 3106799 
1786.339 3048435 2993249 2948445 2918189 2903778 2905479 2923626 2960888 
1790.196 3020942 3105864 3210198 3318896 3408619 3458381 3460585 3422178 
1794.054 3358696 3285709 3214837 3151553 3096187 3047234 3003258 2965792 
1797.911 2939438 2929964 2941973 2975067 3022710 3073228 3114742 3140539 
1801.769 3151787 3155792 3161599 3174816 3194910 3215371 3226287 3219811 
1805.626 3192440 3148449 3097922 3054975 3031719 3033654 3057712 3093217 
1809.484 3125020 3139204 3128491 3094852 3048736 3003325 2970162 2954516 
1813.341 2954116 2961822 2968394 2964691 2943040 2899075 2832068 2745598 
1817.198 2647344 2549279 2465431 2408686 2387863 2404188 2450202 2510819 
1821.056 2568943 2610442 2629009 2628309 2620609 2622309 2644844 2689517 
1824.913 2744264 2789781 2809390 2798652 2767272 2734895 2722225 2744398 
1828.771 2802153 2880196 2947577 2973765 2946043 2872958 2777676 2683116 
1832.628 2606442 2554278 2526049 2516617 2522016 2541880 2580076 2641443 
1836.485 2727726 2832168 2940572 3031619 3085708 3091515 3049136 2968995 
1840.343 2867522 2764671 2678315 2623776 2612242 2648311 2726059 2827199 
1844.200 2926061 2996752 3024812 3011800 2971430 2920524 2873092 2836471 
1848.058 2809557 2784612 2752100 2706254 2649478 2592342 2549779 2537080 
1851.915 2563277 2627142 2716723 2813325 2896807 2952081 2973065 2962689 
1855.773 2930464 2889335 2853580 2835804 2844675 2882998 2945909 3021309 
1859.630 3090013 3131528 3128992 3075798 2979070 2858516 2739863 2645544 
1863.487 2589809 2574676 2590842 2622242 2653211 2674681 2685483 2693051 
1867.345 2707621 2738596 2787680 2848110 2907981 2956051 2984875 2989913 
1871.202 2968961 2918789 2837571 2727093 2595909 2458799 2335991 2247655 
1875.060 2205991 2212619 2256148 2317770 2375868 2414883 2430343 2427411 
1878.917 2417282 2410752 2414117 2426212 2439306 2444405 2435741 2412051 
1882.775 2379200 2345319 2319768 2307477 2308276 2316670 2324832 2325898 
1886.632 2316537 2297750 2275300 2257980 2253017 2264175 2288224 2315771 
1890.489 2334725 2335725 2316704 2282994 2245890 2219013 2214517 2238663 
1894.347 2290355 2360677 2438007 2511652 2577076 2634809 2688383 2737729 
1898.204 2779110 2803487 2801787 2770274 2715223 2651411 2600308 2581376 
1902.062 2604042 2663046 2738696 2803487 2829300 2798318 2707154 2568377 
1905.919 2405287 2248055 2126705 2063445 2070304 2146517 2281429 2452135 
1909.776 2631509 2793583 2916988 2991648 3018539 3006561 2967160 2912117 
1913.634 2848577 2780544 2708988 2635743 2564544 2502354 2456467 2431810 
1917.491 2425845 2428344 2422980 2395859 2341655 2264774 2176919 2091345 
1921.349 2019502 1965512 1926404 1893158 1856153 1812131 1765652 1725532 
1925.206 1699119 1686745 1679693 1661100 1614005 1529506 1413509 1287806 
1929.064 1183369 1132206 1154232 1247962 1391371 1551718 1694429 1796161 
1932.921 1852759 1879048 1903508 1953962 2051494 2200363 2389428 2593442 
1936.778 2783079 2931332 3017538 3034121 2983707 2876060 2726492 2553545 
1940.636 2381499 2237197 2150213 2142621 2221411 2374836 2576209 2793583 
1944.493 2995885 3161799 3277530 3333687 3323671 3239806 3077433 2839806 
1948.351 2548912 2244957 1982154 1818886 1794364 1915621 2148781 2429177 
1952.208 2673247 2808757 2799952 2658679 2441239 2222243 2077628 2053192 
1956.066 2152111 2336857 2546846 2716556 2795984 2764271 2624876 2403588 
1959.923 2135728 1860679 1614205 1422850 1304323 1265275 1300102 1391636 
1963.780 1512881 1633195 1724201 1769578 1767183 1727594 1667220 1602665 
1967.638 1544203 1494860 1452803 1417764 1393731 1387581 1405731 1449711 
1971.495 1511684 1577590 1628971 1649958 1633428 1580383 1501144 1413144 
1975.353 1342277 1316885 1366674 1515741 1769811 2111721 2493989 2849077 
1979.210 3101793 3195010 3109969 2871991 2543179 2201662 1929533 1782852 
1983.068 1782320 1907435 2109357 2323932 2492656 2578143 2563344 2452035 
1986.925 2264875 2031952 1783718 1547861 1347063 1197755 1114068 1107657 
1990.782 1183867 1339818 1560863 1820782 2083587 2310108 2466130 2526216 
1994.640 2482059 2343420 2138692 1907335 1694296 1542707 1482292 1529739 
1998.497 1684517 1933560 2254449 2619175 2996519 3348045 3634028 3817601 
2002.355 3876704 3813256 3659456 3473578 3318963 3253827 3311117 3486003 
2006.212 3739457 4014362 4255109 4422676 4503990 4505162 4442091 4329229 
2010.069 4177354 3995868 3800187 3613179 3464894 3383307 3382372 3453906 
2013.927 3566240 3671184 3724385 3698552 3591329 3426553 3243312 3079068 
2017.784 2952014 2857816 2771707 2666280 2521616 2338656 2137893 1957590 
2021.642 1835656 1799921 1856320 1987713 2154242 2303679 2387696 2371504 
2025.499 2249520 2048897 1826605 1650157 1581880 1660235 1882475 2204093 
2029.357 2548679 2837171 3007429 3036290 2943107 2783212 2628343 2540347 
2033.214 2559244 2690617 2904946 3151920 3377730 3530128 3572253 3488241 
2037.071 3285776 2992182 2650678 2311607 2024562 1825940 1734347 1743429 
2040.929 1824842 1936189 2038943 2105928 2129768 2119746 2097005 2083454 
2044.786 2092776 2129768 2189174 2260112 2331627 2393826 2441372 2469796 
2048.644 2478460 2467597 2440739 2403088 2363542 2331394 2314605 2318736 
2052.501 2343154 2384764 2436807 2492590 2547046 2597642 2643544 2685649 
2056.358 2726292 2766905 2811491 2864486 2929697 3010031 3102361 3197113 
2060.216 3275627 3316225 3295391 3196412 3015637 2765238 2473662 2179117 
2064.073 1924341 1744028 1656710 1663927 1749384 1886269 2042006 2189706 
2067.931 2310474 2396791 2451469 2487024 2520416 2570076 2651711 2773808 
2071.788 2934267 3117912 3299264 3445756 3523948 3511622 3401940 3209663 
2075.646 2964725 2709755 2485891 2322700 2235498 2222476 2269138 2354547 
2079.503 2457800 2563077 2657845 2732461 2777543 2784412 2747099 2666780 
2083.360 2553912 2427178 2310774 2226540 2187309 2194435 2238063 2299815 
2087.218 2361177 2409752 2439640 2451269 2446537 2425379 2383398 2316004 
2091.075 2219912 2100334 1973034 1863208 1798690 1803381 1890396 2055788 
2094.933 2278997 2527349 2766305 2963223 3096854 3160064 3159563 3112973 
2098.790 3044465 2978003 2931865 2914286 2923159 2947177 2971063 2980338 
2102.647 2968294 2935935 2891737 2847543 2813325 2791949 2778577 2762137 
2106.505 2729260 2669080 2576643 2453734 2309942 2160668 2022498 1915355 
2110.362 1856619 1859414 1929533 2062180 2239728 2432276 2607875 2735728 
2114.220 2798218 2795450 2743997 2670914 2601908 2554145 2529315 2515784 
2118.077 2494489 2451802 2385097 2306011 2234233 2189640 2179250 2192970 
2121.935 2203161 2175420 2081224 1909332 1672841 1406030 1156425 965172 
2125.792 859883 844014 900920 998315 1100681 1181708 1226962 1238093 1227759 
2130.132 1215997 1221147 1258164 1335763 1455496 1612309 1794797 1985982 
2133.989 2163466 2303280 2385031 2396958 2343720 2246189 2141588 2071635 
2137.846 2072967 2166696 2349050 2587842 2827366 3005961 3061115 2953415 
2141.704 2675448 2256981 1760662 1271057 877413 645234 601069 722989 947739 
2146.043 1185263 1344537 1367970 1243609 1014090 757076 564307 501872 591779 
2150.383 801124 1061652 1287440 1411049 1406495 1293655 1125662 961187 
2154.240 845973 791165 779083 773838 747351 696306 648054 642513 715854 
2158.580 873462 1083441 1290863 1446819 1529939 1557006 1568811 1609981 
2162.438 1710196 1872193 2070071 2266007 2429410 2543646 2615342 2664313 
2166.295 2711588 2767672 2826732 2869890 2874025 2826499 2728693 2599475 
2170.152 2468463 2367673 2317603 2325531 2383398 2473695 2574976 2669047 
2174.010 2742130 2785380 2792049 2757502 2677915 2557011 2407053 2253117 
2177.867 2128702 2068772 2097138 2215816 2400023 2601308 2761137 2824064 
2181.725 2761103 2579742 2322767 2051461 1831563 1712059 1709464 1810501 
2185.582 1978160 2166862 2335025 2460232 2539613 2588109 2630509 2692851 
2189.439 2797518 2955250 3164603 3409120 3661795 3884460 4037102 4090147 
2193.297 4029544 3865170 3628381 3364340 3116343 2915320 2773942 2685283 
2197.154 2633109 2600575 2579643 2572843 2585242 2617675 2656878 2677848 
2201.012 2650644 2552078 2380466 2157738 1927170 1734513 1618462 1593253 
2204.869 1648661 1753842 1872126 1975031 2047133 2085319 2095007 2079858 
2208.727 2038644 1965678 1857052 1715851 1556341 1403071 1281857 1216395 
2212.584 1219618 1292924 1428601 1615734 1841678 2093476 2358511 2618809 
2216.441 2854080 3045132 3176519 3242844 3250456 3217241 3164703 3114441 
2220.299 3080770 3068323 3072627 3082572 3085942 3071693 3032553 2965825 
2224.156 2873859 2763438 2643844 2528349 2429744 2360610 2330462 2345785 
2228.014 2407620 2512685 2653445 2818328 2989679 3148483 3272956 3345207 
2231.871 3357027 3313521 3232229 3140840 3070659 3043397 3068723 3138670 
2235.729 3232229 3319964 3374257 3375359 3312652 3187500 3007662 2788681 
2239.586 2549445 2313040 2107693 1959188 1890629 1914091 2026426 2206890 
2243.443 2422980 2640077 2827432 2968428 3062483 3121016 3161599 3200084 
2247.301 3245682 3297895 3349414 3388783 3406616 3397799 3364807 3315991 
2251.158 3266580 3233464 3231494 3270653 3350583 3459350 3574491 3669614 
2255.016 3721043 3715161 3653374 3550973 3431195 3316359 3222448 3153355 
2258.873 3104296 3066454 3034188 3009464 3002591 3025980 3090013 3195911 
2262.730 3335090 3490044 3641680 3773815 3876470 3946681 3985135 3993127 
2266.588 3971692 3919866 3839597 3737151 3624773 3519472 3437507 3390820 
2270.445 3381437 3401540 3433700 3458014 3457546 3421443 3349581 3251390 
2274.303 3143176 3042663 2965892 2923225 2917154 2943941 2995351 3062850 
2278.160 3140172 3225486 3319831 3424883 3538646 3653040 3753294 3823317 
2282.018 3848589 3823418 3753394 3655546 3551340 3461821 3400605 3370250 
2285.875 3364039 3370450 3379600 3387781 3399770 3423514 3467833 3534938 
2289.732 3618158 3702429 3769704 3803696 3796243 3749584 3675762 3593267 
2293.590 3520341 3472275 3457245 3476149 3524282 3593701 3675562 3761515 
2297.447 3844511 3919063 3980420 4024361 4048139 4049778 4029912 3991655 
2301.305 3940395 3883022 3827362 3780132 3746476 3729264 3729164 3744972 
2305.162 3774283 3814159 3860757 3908966 3952399 3983563 3994832 3981991 
2309.020 3944842 3889909 3829067 3778895 3753929 3764456 3812253 3890009 
2312.877 3983094 4073691 4146476 4191204 4205390 4192609 4161330 4121021 
2316.734 4079812 4044126 4017806 4002825 4000283 4010817 4035196 4074561 
2320.592 4130319 4204319 4298408 4412969 4545473 4689908 4835698 4968867 
2324.449 5075962 5144892 5167625 5142846 5074252 4971984 4848865 4722097 
2328.307 4608727 4524447 4482598 4491804 4553509 4660568 4798609 4946513 
2332.164 5080588 5181875 5238850 5250755 5226810 5184390 5142377 5115823 
2336.021 5112772 5130877 5160986 5189957 5207763 5210915 5204376 5198742 
2339.879 5207629 5240963 5300997 5381704 5469774 5549740 5607367 5634622 
2343.736 5629688 5596627 5540679 5467694 5381100 5282482 5173291 5056049 
2347.594 4935219 4817505 4711110 4624198 4566568 4545239 4566434 4631097 
2351.451 4735429 4868366 5012573 5148613 5255920 5319411 5332325 5298582 
2355.309 5233585 5160583 5107307 5096277 5139460 5233518 5362616 5500275 
2359.166 5620256 5705286 5751014 5766929 5771496 5785800 5823980 5889502 
2363.023 5975022 6065464 6142684 6191717 6204321 6179584 6123259 6043221 
2366.881 5949492 5849670 5748026 5645733 5541552 5432967 5318103 5197971 
2370.738 5076766 4962298 4863441 4790066 4748359 4740219 4761021 4801088 
2374.596 4847927 4886896 4906298 4898558 4860760 4795728 4709168 4609062 
2378.453 4502216 4394459 4288737 4186018 4086702 3991321 3902146 3823251 
2382.311 3759744 3716364 3696347 3699588 3722413 3757739 3797312 3831474 
2386.168 3852333 3854406 3835352 3795841 3740025 3675228 3610172 3554982 
2390.025 3519104 3508248 3524082 3562331 3614115 3668043 3713123 3742666 
2393.883 3755098 3754263 3747545 3742031 3742298 3748715 3757906 3765760 
2397.740 3768768 3766696 3762351 3760412 3764590 3775620 3791195 3806504 
2401.598 3816899 3819574 3815262 3807440 3800922 3798515 3800421 3803630 
2405.455 3803028 3793736 3772946 3741496 3703498 3664869 3631656 3608702 
2409.313 3598078 3599281 3609337 3623537 3636333 3641579 3635532 3616654 
2413.170 3587454 3554080 3526353 3513593 3522979 3555884 3607065 3664635 
2417.027 3713256 3738822 3731503 3689831 3620563 3537677 3457813 3396898 
2420.885 3366677 3371953 3410322 3473778 3550873 3628549 3694542 3740627 
2424.742 3761850 3758207 3734812 3700691 3666607 3643852 3641680 3664501 
2428.600 3711318 3775720 3846984 3912443 3960122 3982025 3975337 3942568 
2432.457 3891414 3832610 3777057 3734076 3709948 3706506 3721511 3749450 
2436.314 3783240 3814727 3836722 3844711 3837624 3818337 3793134 3771542 
2440.172 3761917 3770539 3799117 3843642 3895158 3943170 3978480 3996471 
2444.029 3998310 3990384 3981791 3980486 3990485 4010717 4035631 4057905 
2447.887 4071417 4073591 4065530 4051049 4033791 4015967 3996604 3972963 
2451.744 3941899 3901912 3854740 3804198 3755433 3712855 3678636 3652238 
2455.602 3631823 3615551 3602722 3593901 3590962 3595205 3606364 3622000 
2459.459 3638272 3650066 3653976 3647627 3631355 3607433 3579603 3552409 
2463.316 3530495 3518570 3520207 3537343 3569447 3613446 3663866 3713891 
2467.174 3757605 3790828 3812487 3823017 3824922 3820042 3808576 3789090 
2471.031 3760814 3723683 3680608 3636768 3598445 3571752 3559759 3562431 
2474.889 3576997 3600383 3629551 3663098 3701059 3742632 3785045 3823017 
2478.746 3849057 3857047 3843943 3812721 3771175 3731303 3704467 3698118 
2482.604 3713590 3745840 3785279 3820777 3843642 3849091 3837357 3812387 
2486.461 3780834 3749751 3724285 3708745 3704100 3709714 3723248 3741295 
2490.318 3761148 3781335 3801457 3823050 3847352 3874230 3901143 3923008 
2494.176 3933774 3928425 3906091 3870619 3831206 3798649 3782204 3785981 
2498.033 3807507 3837591 3863632 3875233 3865906 3836120 3792934 3746576 
2501.891 3706974 3680440 3667542 3663833 3661862 3653475 3634062 3603557 
2505.748 3567242 3534136 3515697 3521944 3558122 3623102 3709046 3802861 
2509.605 3888672 3953602 3990686 4001186 3993728 3981657 3978212 3991321 
2513.463 4021819 4063022 4104128 4134066 4145908 4139485 4120753 4098509 
2517.320 4081518 4074762 4077638 4085665 4091853 4090984 4080648 4062788 
2521.178 4042086 4024294 4014060 4013626 4021886 4036032 4051918 4065029 
2525.035 4072086 4070313 4057972 4034962 4001855 3961627 3918695 3879144 
2528.893 3849859 3836388 3842238 3867276 3907528 3955943 4004296 4044995 
2532.750 4072989 4086769 4088307 4082387 4073992 4068039 4068173 4076333 
2536.607 4093726 4121221 4159289 4207096 4262436 4320361 4373340 4414040 
2540.465 4435798 4435898 4417488 4388033 4357442 4335053 4325983 4329932 
2544.322 4340708 4349410 4347603 4330702 4299680 4259960 4220579 4190468 
2548.180 4175614 4178625 4197527 4227940 4263507 4298174 4326485 4344089 
2552.037 4348339 4338132 4314940 4282379 4246877 4215694 4196156 4193747 
2555.895 4209973 4242862 4286161 4332442 4373574 4403698 4420702 4426057 
2559.752 4424718 4423178 4428166 4443665 4470880 4506970 4547047 4584650 
2563.609 4613951 4631197 4634948 4625571 4604240 4572126 4530139 4479752 
2567.467 4424049 4368520 4320964 4290778 4285525 4309384 4361391 4435028 
2571.324 4520463 4607052 4686793 4754790 4809967 4852819 4883981 4902646 
2575.182 4906432 4892861 4861531 4815461 4761289 4707761 4663382 4634312 
2579.039 4622055 4623595 4633140 4643656 4648813 4645397 4633307 4616128 
2582.896 4599217 4590543 4597609 4626475 4679726 4755929 4848631 4946915 
2586.754 5038584 5112772 5161623 5183452 5181808 5164037 5138454 5112470 
2590.611 5090276 5073246 5060239 5049378 5039188 5029467 5020685 5014182 
2594.469 5011836 5014852 5024674 5042037 5066978 5098289 5133492 5168832 
2598.326 5200586 5225972 5244450 5257932 5270408 5285434 5305625 5330547 
2602.184 5356644 5378953 5392976 5395995 5389185 5376269 5362985 5354565 
2606.041 5354028 5361576 5374927 5390493 5404382 5414178 5418842 5418976 
2609.898 5416191 5412535 5410522 5412031 5418137 5429511 5445180 5463063 
2613.756 5480780 5496115 5507121 5513631 5516215 5516148 5514537 5511786 
2617.613 5507356 5500913 5492289 5482457 5473901 5469808 5472291 5482592 
2621.471 5498900 5517692 5534437 5545042 5547156 5541854 5532054 5522625 
2625.328 5518564 5523195 5537390 5559607 5586490 5613006 5634891 5648855 
2629.186 5653588 5649728 5639120 5625325 5611596 5601628 5598137 5603105 
2633.043 5617806 5642242 5675676 5715996 5760315 5805108 5846581 5881341 
2636.900 5907270 5923325 5930043 5928532 5920268 5906699 5888562 5866865 
2640.758 5842484 5817600 5794564 5777002 5767903 5769682 5782778 5806317 
2644.615 5837581 5873347 5909990 5944218 5973107 5994506 6006903 6009691 
2648.473 6003678 5991650 5977810 5967631 5965616 5974955 5995346 6023398 
2652.330 6052662 6076451 6088715 6086666 6071243 6047353 6022189 6003006 
2656.188 5995917 6003745 6026388 6060558 6101249 6142751 6179685 6208287 
2660.045 6226102 6232454 6228522 6216522 6200019 6182643 6168594 6160697 
2663.902 6160562 6168258 6181534 6197028 6210472 6218136 6217698 6208825 
2667.760 6193364 6174812 6157638 6145910 6142919 6150110 6167452 6193230 
2671.617 6224992 6259547 6293601 6324194 6348603 6364674 6371298 6368743 
2675.475 6358252 6341946 6322815 6303518 6286137 6271851 6261127 6253429 
2679.332 6248286 6245261 6244219 6245429 6249496 6256858 6267682 6281700 
2683.189 6297971 6314982 6329943 6339491 6340466 6330380 6308460 6276254 
2687.047 6238001 6199582 6167082 6145473 6136903 6140398 6151354 6164293 
2690.904 6172930 6172526 6160797 6138012 6106457 6070201 6033881 6002468 
2694.762 5980027 5969882 5973208 5989097 6013992 6042381 6067917 6084616 
2698.619 6088984 6080853 6063414 6042246 6024003 6014630 6017452 6033242 
2702.477 6060088 6094562 6132266 6169771 6204120 6233664 6257967 6276893 
2706.334 6291315 6301871 6308863 6312494 6312057 6307082 6296929 6282171 
2710.191 6264724 6247480 6234135 6228051 6230975 6242707 6260657 6281330 
2714.049 6301434 6318882 6334549 6350923 6372139 6401594 6440804 6488492 
2717.906 6540728 6591320 6634382 6665034 6681184 6683640 6676339 6664428 
2721.764 6653425 6647437 6648008 6654098 6662207 6668095 6667759 6659717 
2725.621 6644812 6627048 6612548 6606459 6613254 6633609 6665336 6703190 
2729.479 6741047 6773052 6794894 6805193 6803948 6792707 6773220 6746432 
2733.336 6712949 6673109 6627485 6577898 6527004 6478504 6435793 6401325 
2737.193 6375468 6356336 6340265 6322748 6299921 6269430 6231883 6190306 
2741.051 6149808 6116203 6094562 6087976 6096713 6118421 6148766 6182575 
2744.908 6214808 6241463 6260320 6270775 6273532 6270640 6264657 6258270 
2748.766 6253732 6252454 6254606 6259245 6264253 6266909 6265329 6258270 
2752.623 6246068 6230942 6216287 6205767 6203347 6211581 6231614 6262068 
2756.480 6300190 6341072 6379166 6409059 6426982 6431320 6423855 6408857 
2760.338 6392011 6378830 6373181 6376039 6385185 6396853 6407210 6413700 
2764.195 6416491 6417735 6420762 6428126 6440670 6456913 6473963 6488492 
2768.053 6498751 6505040 6509782 6516880 6529661 6550482 6580051 6617157 
2771.910 6659986 6706319 6754643 6803376 6851003 6895943 6936510 6971392 
2775.768 7000450 7024998 7047998 7072885 7103062 7140078 7183397 7230527 
2779.625 7277528 7320557 7357120 7386845 7411246 7433390 7456715 7483918 
2783.482 7516821 7555457 7598986 7646026 7695298 7745722 7796725 7847970 
2787.340 7899053 7949535 7998908 8047105 8094633 8142976 8193993 8249978 
2791.197 8312997 8383693 8461427 8544683 8630762 8717532 8803408 8887880 
2795.055 8971658 9055316 9139500 9223529 9306220 9385644 9460172 9529429 
2798.912 9594733 9659031 9726117 9799957 9882997 9976121 10077709 10184715 
2802.770 10293001 10398702 10499541 10594936 10686549 10777468 10871770 
2806.145 10972820 11082867 11202496 11330762 11465904 11606194 11750579 
2809.520 11899133 12052610 12211797 12376497 12545660 12717311 12889611 
2812.895 13062080 13236088 13415325 13603731 13804941 14019968 14246914 
2816.271 14480452 14714630 14944409 15168098 15387920 15609914 15842641 
2819.646 16093612 16368056 16667394 16989782 17330788 17685350 18050010 
2823.021 18423344 18805818 19200164 19609982 20038994 20491284 20971516 
2826.396 21483784 22033468 22625942 23266102 23958358 24706324 25512432 
2829.771 26379046 27308254 28302824 29366640 30504440 31721282 33022948 
2833.147 34414776 35901904 37488768 39179536 40978196 42888672 44914420 
2836.522 47058476 49322540 51706476 54207124 56818092 59529208 62325772 
2839.897 65190584 68103608 71044304 73994984 76940776 79872992 82789088 
2843.272 85690872 88582360 91465976 94339064 97192080 100007096 102757936 
2846.648 105415008 107943584 110307792 112473240 114405208 116071104 
2849.541 117441920 118491192 119197872 119546584 119528744 119143080 
2852.434 118397664 117311592 115912920 114241856 112347096 110280064 
2855.327 108095360 105842616 103563592 101293952 99059600 96879944 94770400 
2858.702 92742800 90808816 88980440 87269608 85688616 84248256 82955784 
2862.077 81813768 80818648 79961288 79227200 78600792 78066256 77610304 
2865.453 77223808 76899320 76629696 76405472 76211656 76027232 75827512 
2868.828 75583664 75269536 74863664 74350896 73725072 72987528 72146488 
2872.203 71215064 70210912 69154752 68068608 66977324 65905624 64877076 
2875.578 63914404 63035912 62255552 61582344 61020708 60571056 60232164 
2878.954 60002284 59880864 59869152 59968728 60181884 60509008 60948264 
2882.329 61494652 62141192 62879524 63700796 64597240 65561272 66585496 
2885.704 67662056 68782472 69937576 71119744 72322816 73543872 74782808 
2889.079 76040928 77318664 78614328 79922488 81235512 82544712 83842192 
2892.455 85123408 86386896 87633568 88865080 90082192 91284576 92471024 
2895.830 93640920 94795176 95936752 97070408 98200632 99331264 100464608 
2899.205 101602448 102745936 103896936 105058048 106230520 107414360 
2902.098 108606664 109803320 111000544 112198160 113400888 114618224 
2904.991 115863552 117149872 118485752 119874136 121311616 122791176 
2907.884 124304040 125844512 127409904 129001232 130621208 132272128 
2910.777 133953672 135662464 137391472 139131024 140870768 142597968 
2913.670 144299936 145962960 147570976 149105952 150546064 151864080 
2916.563 153030656 154012192 154775504 155292080 155539696 155504656 
2919.457 155180800 154567632 153666832 152481600 151017520 149284640 
2922.350 147300288 145091104 142689040 140129184 137445712 134666704 
2925.243 131817208 128919360 125995664 123071352 120171776 117319312 
2928.136 114530832 111813376 109165808 106582480 104057456 101589472 
2931.029 99183280 96847928 94594168 92429872 90356056 88368248 86457328 
2934.404 84613312 82828936 81102232 79436256 77838792 76318960 74885672 
2937.779 73546184 72304384 71161776 70117872 69171312 68320792 67565184 
2941.155 66905580 66344084 65883568 65527440 65277220 65131800 65085648 
2944.530 65128832 65248876 65430544 65660008 65925644 66218568 66532584 
2947.905 66862600 67202072 67542464 67871576 68173728 68431872 68627376 
2951.280 68741864 68760456 68669984 68461968 68132720 67683656 67120112 
2954.656 66451648 65690496 64848608 63938780 62972480 61958448 60904840 
2958.031 59817240 58700040 57555820 56385892 55190892 53970692 52725216 
2961.406 51454952 50161796 48849568 47523884 46192648 44864084 43546536 
2964.781 42245712 40964432 39701080 38451928 37212388 35979684 34754492 
2968.156 33542696 32353866 31198476 30086522 29024308 28012996 27049520 
2971.532 26127868 25240860 24382120 23547496 22735456 21946296 21182674 
2974.907 20447694 19744952 19077688 18448786 17859596 17310134 16798352 
2978.282 16320406 15872024 15447862 15043907 14657496 14287591 13934971 
2981.657 13600620 13286203 12990927 12713217 12449051 12192577 11938297 
2985.033 11681614 11420149 11155442 10891984 10637141 10399347 10185529 
2988.408 9999719 9842560 9711141 9600085 9503418 9416693 9336654 9261809 
2992.265 9191411 9124577 9059512 8993409 8923730 8848956 8769089 8686871 
2996.123 8605785 8529951 8462306 8403927 8353933 8309822 8269093 8229346 
2999.980 8189097 8147939 8105875 8063003 8019394 7974844 7929287 7883093 
3003.838 7836364 7789641 7743664 7698603 7655536 7615677 7580778 7553266 
3007.695 7534790 7525856 7524743 7527474 7528654 7522215 7503808 7471716 
3011.552 7427559 7375218 7320355 7268228 7222644 7185081 7155101 7131388 
3015.410 7111785 7094642 7078678 7062176 7044058 7022573 6996577 6965466 
3019.267 6929777 6890927 6851441 6813608 6779412 6749999 6724760 6702685 
3023.125 6681150 6657227 6628158 6590917 6543553 6485835 6419450 6348804 
3026.982 6279616 6218842 6171955 6141742 6126620 6121613 6118925 6110423 
3030.840 6090362 6058105 6018392 5979523 5951541 5942740 5955841 5988090 
3034.697 6031092 6073897 6105147 6116976 6106659 6076989 6034049 5986108 
3038.554 5940758 5902903 5874557 5855178 5842584 5833820 5826297 5818137 
3042.412 5808130 5795437 5780226 5763303 5745843 5730097 5718581 5713209 
3046.269 5714955 5723382 5735502 5747153 5753163 5748328 5728888 5693066 
3050.127 5641772 5579107 5511215 5446388 5393211 5358792 5347252 5358221 
3053.984 5387373 5426324 5465110 5495611 5511719 5511987 5498799 5477324 
3057.842 5452024 5426894 5403174 5380798 5359160 5338094 5318673 5302405 
3061.699 5291002 5284596 5281510 5279196 5274366 5264807 5249749 5230264 
3065.556 5207930 5184189 5159511 5133525 5105464 5075090 5043009 5011400 
3069.414 4983011 4960756 4946748 4942458 4948222 4963504 4986329 5013679 
3073.271 5040696 5061547 5070900 5065134 5044082 5012272 4977715 4949194 
3077.129 4933744 4933510 4945172 4960488 4969102 4963337 4939810 4900535 
3080.986 4852082 4802563 4759112 4726049 4704579 4694396 4694966 4705985 
3084.844 4727590 4759012 4797369 4837540 4872320 4895207 4901573 4890817 
3088.701 4865250 4829264 4787788 4744205 4699722 4654573 4609129 4564358 
3092.558 4522471 4485979 4456754 4434359 4417287 4402928 4388702 4374746 
3096.416 4363266 4357576 4361860 4378226 4406643 4444200 4486180 4527527 
3100.273 4563085 4589639 4605177 4609062 4601728 4584416 4558967 4527795 
3104.131 4494181 4461306 4432417 4410927 4399380 4399681 4412902 4438309 
3107.988 4473793 4514972 4556121 4591414 4615927 4627179 4626275 4617099 
3111.845 4604742 4594662 4590577 4592988 4600723 4611339 4622390 4632939 
3115.703 4643053 4653401 4664588 4676142 4686391 4693291 4694564 4689205 
3119.560 4676745 4658023 4634044 4605612 4573868 4540518 4507338 4477308 
3123.418 4453439 4437539 4430375 4431011 4436836 4444635 4451331 4454745 
3127.275 4453975 4448887 4439681 4427396 4413940 4401957 4394895 4396870 
3131.133 4410693 4436635 4472085 4510586 4544369 4566267 4571758 4560775 
3134.990 4537505 4509615 4483903 4466729 4460837 4465691 4478379 4495186 
3138.847 4512260 4526925 4537739 4543833 4545172 4542025 4534491 4523777 
3142.705 4510820 4496960 4483435 4470646 4459197 4448786 4439146 4429840 
3146.562 4420300 4410291 4399045 4385858 4370729 4354330 4338466 4326083 
3150.420 4320160 4323574 4337362 4360655 4391012 4424484 4457724 4487753 
3154.277 4513499 4535630 4555485 4574605 4594729 4615692 4637058 4657186 
3158.135 4674133 4686123 4692454 4692788 4687162 4676812 4662377 4644359 
3161.992 4622993 4598379 4571423 4543933 4518956 4499872 4489896 4490532 
3165.849 4500341 4515307 4529904 4537840 4535094 4521166 4498969 4473994 
3169.707 4452402 4438677 4434693 4438610 4446376 4453071 4454745 4449925 
3173.564 4439078 4425722 4414107 4408953 4413873 4430710 4458796 4494549 
3177.422 4532449 4565899 4588132 4595433 4587128 4566903 4540886 4516914 
3181.279 4501614 4498500 4507740 4526523 4550161 4574069 4594428 4609363 
3185.136 4617367 4616998 4605880 4581904 4542828 4489226 4424651 4355468 
3188.994 4290745 4239650 4208869 4201609 4216765 4249052 4290444 4332375 
3192.851 4367583 4390911 4401421 4400719 4393522 4385623 4382310 4386493 
3196.709 4398275 4413840 4427731 4433823 4427329 4406911 4374511 4335019 
3200.566 4294694 4259826 4235501 4223590 4225095 4238312 4260027 4285659 
3204.424 4309987 4327222 4332409 4322570 4297806 4261366 4219274 4179060 
3208.281 4147313 4128112 4122458 4128112 4140990 4156747 4172068 4185249 
3212.138 4196825 4207497 4218705 4231821 4247045 4264210 4282078 4298408 
3215.996 4309753 4312563 4303997 4283216 4252632 4217835 4187290 4168823 
3219.853 4167552 4183911 4213486 4247279 4275486 4290243 4287666 4268024 
3223.711 4235635 4197059 4158553 4125603 4102422 4092221 4097004 4118077 
3227.568 4154405 4202612 4256882 4308916 4350146 4373607 4376185 4358781 
3231.426 4326117 4285391 4244368 4209571 4185349 4173640 4174443 4185885 
3235.283 4205088 4228542 4251896 4271304 4284187 4289474 4287499 4280640 
3239.140 4271839 4262804 4254540 4246007 4235635 4221951 4204486 4184613 
3242.998 4165277 4149688 4140890 4140054 4146878 4159188 4174075 4188762 
3246.855 4201642 4211646 4219107 4224694 4228943 4232590 4235568 4237542 
3250.713 4237676 4234732 4227505 4215226 4198130 4177186 4154338 4132494 
3254.570 4114130 4101118 4094328 4093291 4096669 4102757 4109714 4116538 
3258.427 4122994 4129316 4136709 4146242 4158854 4174276 4191037 4206259 
3262.285 4216296 4218036 4210207 4193178 4171098 4149989 4135605 4132494 
3266.142 4141994 4161798 4186955 4211646 4232055 4246509 4256213 4263675 
3270.000 4270701 4277528 4281342 4277661 4263507 4237107 4201475 4162333 
3273.857 4127409 4103292 4093826 4098543 4114230 4135638 4158084 4178424 
3277.715 4195721 4209772 4221348 4230248 4235535 4235970 4230650 4219642 
3281.572 4203984 4186253 4169157 4155475 4147714 4147748 4156546 4173874 
3285.429 4197862 4224895 4249119 4264979 4267188 4253335 4224360 4185349 
3289.287 4143031 4105199 4077939 4064293 4064226 4075063 4092756 4113093 
3293.144 4132527 4147948 4156914 4157516 4148550 4130152 4104730 4075965 
3297.002 4048841 4027304 4013592 4007138 4004898 4003192 3999279 3993360 
3300.859 3988478 3988980 3999246 4021017 4052420 4088241 4121589 4146677 
3304.717 4160359 4163337 4158954 4152866 4150089 4153234 4163604 4179696 
3308.574 4199802 4221817 4244535 4266920 4288403 4307945 4324210 4335320 
3312.431 4339838 4336157 4323272 4300516 4267556 4224928 4175012 4121756 
3316.289 4070380 4027538 3999046 3988445 3995400 4016803 4046534 4077872 
3320.146 4106236 4129182 4147447 4162768 4176852 4189197 4197895 4199099 
3324.004 4190200 4170998 4144536 4116739 4094127 4082488 4084060 4098008 
3327.861 4120619 4146978 4173339 4197895 4220512 4242427 4264344 4286194 
3331.719 4306507 4323741 4337094 4346900 4354932 4363400 4373540 4385188 
3335.576 4396200 4403329 4404066 4397439 4384820 4369256 4354296 4342147 
3339.433 4332743 4323841 4311794 4293556 4268158 4236907 4204486 4176350 
3343.291 4157649 4151862 4159791 4180097 4209237 4243331 4278498 4311459 
3347.148 4340106 4363232 4380435 4391982 4398208 4399380 4395464 4385054 
3351.006 4365943 4336793 4296735 4247413 4193479 4142529 4102355 4080213 
3354.863 4079277 4097807 4130119 4167853 4203215 4231286 4251395 4266117 
3358.720 4279836 4295631 4314136 4333045 4349209 4360120 4366512 4371967 
3362.578 4382778 4403530 4435397 4474496 4512361 4539279 4546344 4530306 
3366.435 4494248 4447347 4400417 4363935 4344457 4342382 4353627 4371231 
3370.293 4387966 4398543 4400752 4395330 4385523 4375013 4367483 4364939 
3374.150 4368319 4377122 4389238 4403129 4416852 4429271 4440484 4450661 
3378.008 4460335 4469441 4476806 4480087 4477676 4467901 4451297 4430342 
3381.865 4408718 4390075 4376854 4369290 4365006 4359952 4350314 4333781 
3385.722 4309987 4281309 4251294 4224092 4202445 4187725 4179963 4177990 
3389.580 4179629 4183342 4186788 4189197 4189264 4188260 4187725 4190234 
3393.437 4198631 4214690 4237810 4265314 4292653 4314772 4327790 4330501 
3397.295 4324712 4314772 4306239 4303328 4308347 4320394 4336525 4352187 
3401.152 4364136 4369123 4366412 4357476 4344624 4331304 4320729 4314873 
3405.010 4314337 4317383 4320093 4318219 4307812 4287265 4258522 4227036 
3408.867 4200906 4187892 4193579 4219241 4261332 4312028 4363098 4406208 
3412.724 4436166 4451263 4452703 4443029 4425722 4403832 4379900 4356974 
3416.582 4337596 4324544 4319892 4324712 4338366 4358647 4382176 4405237 
3420.439 4424819 4438208 4444033 4441723 4431915 4415547 4395698 4375917 
3424.297 4360187 4351920 4352556 4361023 4373909 4386962 4395597 4397739 
3428.154 4393388 4385422 4376620 4370093 4367181 4366713 4366813 4364939 
3432.011 4359149 4348607 4333547 4314505 4293523 4272441 4254038 4241624 
3435.869 4237576 4243264 4257283 4276122 4294159 4305603 4307945 4301922 
3439.726 4291984 4284220 4283785 4292050 4306138 4319424 4325548 4321566 
3443.584 4310556 4300416 4302056 4324812 4371365 4436869 4508510 4570686 
3447.441 4609229 4617769 4598748 4561780 4518789 4480455 4453071 4438007 
3451.299 4432919 4433254 4435497 4436936 4437338 4437338 4437807 4439313 
3455.156 4441120 4442024 4440317 4434091 4421639 4401455 4373909 4340507 
3459.013 4304766 4272207 4248550 4238245 4243063 4261198 4287098 4313233 
3462.871 4333045 4342415 4341378 4332978 4321700 4312095 4305469 4301119 
3466.728 4296334 4288771 4277494 4264243 4252599 4246844 4249521 4260930 
3470.586 4279067 4300148 4320662 4338199 4352489 4364203 4374645 4384083 
3474.443 4391715 4395999 4394828 4387665 4374645 4357308 4337562 4317282 
3478.301 4298007 4281576 4270434 4267589 4276892 4300550 4338566 4386460 
3482.158 4436836 4480355 4509548 4521099 4517617 4505664 4494482 4492206 
3486.015 4502316 4522706 4546176 4563085 4564291 4544737 4505430 4452067 
3489.873 4392652 4334952 4284722 4243866 4212382 4188929 4172403 4163470 
3493.730 4163337 4174510 4198330 4233962 4278264 4324979 4366713 4395932 
3497.588 4406576 4395196 4362563 4313367 4255109 4199066 4156445 4137444 
3501.445 4148149 4188962 4252566 4325716 4392920 4439982 4457724 4445338 
3505.302 4408016 4356371 4302022 4257518 4231821 4230884 4255276 4301487 
3509.160 4360187 4420668 4472755 4509180 4527527 4529101 4518521 4501245 
3513.017 4482129 4464855 4451263 4442292 4437037 4434827 4434057 4432250 
3516.875 4426526 4413338 4389506 4353526 4306607 4252398 4196892 4147012 
3520.732 4108243 4083926 4074561 4076668 4086535 4099813 4114397 4130821 
3524.590 4151963 4180666 4218672 4264912 4315375 4364169 4405505 4435464 
3528.447 4452904 4459900 4459699 4454477 4444769 4428601 4403396 4366947 
3532.304 4320428 4267389 4215293 4172804 4146978 4142496 4159222 4192174 
3536.162 4232892 4271638 4301253 4317550 4319825 4309518 4288804 4259659 
3540.019 4223791 4183509 4142195 4104362 4075932 4063123 4070781 4102255 
3543.877 4157415 4233427 4323540 4419229 4508979 4581569 4626710 4637359 
3547.734 4611607 4553978 4474898 4387196 4307109 4249119 4223456 4234330 
3551.592 4277260 4339738 4404032 4454076 4479015 4475299 4446209 4399145 
3555.449 4343553 4287801 4239918 4206427 4191271 4195453 4217267 4251294 
3559.306 4289072 4320964 4338332 4335086 4309016 4262269 4199300 4126239 
3563.164 4050714 3981423 3928726 3905823 3926753 4003259 4137913 4318219 
3567.021 4513700 4685956 4807454 4867160 4872219 4838512 4782930 4718412 
3570.879 4653000 4591180 4534726 4485477 4445673 4418024 4405070 4407045 
3574.736 4421137 4441255 4460168 4471483 4471383 4460369 4441824 4421170 
3578.594 4403932 4393321 4390075 4392117 4394794 4391782 4376888 4344524 
3582.451 4291849 4219910 4135504 4050145 3980821 3948085 3971892 4066835 
3586.308 4232892 4450125 4675372 4858448 4963773 4982072 4928550 4829533 
3590.166 4713053 4600891 4508778 4447481 4422944 4436836 4486180 4563387 
3594.023 4654506 4742798 4812010 4849669 4850072 4815997 4756834 4685655 
3597.881 4617836 4567807 4545138 4553208 4587061 4634647 4678018 4699822 
3601.738 4687564 4636656 4550697 4439213 4316144 4195453 4091886 4020147 
3605.595 3993193 4021619 4109112 4249220 4419329 4584985 4710273 4768961 
3609.453 4756700 4689841 4599719 4518956 4475801 4484807 4541255 4620515 
3613.310 4685286 4702736 4655712 4550027 4408216 4262369 4143834 4080213 
3617.168 4093559 4194416 4377824 4618639 4876911 5104525 5262728 5333533 
3621.025 5318304 5233551 5100971 4942190 4772277 4599082 4423580 4241356 
3624.883 4049410 3851798 3663299 3517301 3463424 3560093 3852199 4326585 
3628.740 4878050 5339000 5590955 5619685 5491115 5288352 5081728 4917323 
3632.597 4815093 4775962 4782629 4810067 4833587 4839986 4828863 4808760 
3636.455 4788893 4775426 4768291 4762931 4753518 4737204 4715498 4693492 
3640.312 4676243 4663951 4650421 4623662 4569481 4476873 4343921 4177889 
3644.170 3995501 3817367 3668344 3572854 3551875 3619995 3780834 4027203 
3648.027 4340106 4695971 5066106 5413206 5692126 5858839 5889435 5791072 
3651.885 5595183 5345407 5084309 4853590 4687932 4613649 4645464 4774589 
3655.742 4963504 5150893 5282013 5327897 5293819 5205482 5094467 4985659 
3659.599 4893732 4825412 4780552 4756097 4747957 4751876 4762696 4772813 
3663.457 4772813 4751574 4699052 4609765 4484372 4331271 4166113 4014395 
3667.314 3908464 3885429 3981724 4214021 4556556 4925333 5211049 5327730 
3671.172 5258905 5047970 4768190 4493980 4292284 4227772 4349041 4662947 
3675.029 5092556 5489840 5717540 5744030 5633011 5475814 5340979 5260515 
3678.886 5238380 5257027 5289325 5309986 5306028 5275674 5224832 5158639 
3682.744 5078040 4979190 4858013 4714761 4558532 4406342 4282647 4212817 
3686.601 4219307 4315776 4500308 4751106 5027121 5284025 5487289 5621766 
3690.459 5686923 5690078 5641101 5551083 5434946 5309952 5193411 5101038 
3694.316 5041434 5015355 5014082 5022562 5022092 4998127 4945407 4869807 
3698.174 4786046 4713287 4671453 4675841 4733084 4837138 4969135 5099496 
3702.031 5198071 5246831 5242505 5195490 5121522 5037344 4955260 4882473 
3705.888 4822899 4777805 4747856 4735227 4744875 4783869 4861062 4983882 
3709.746 5153877 5362616 5588303 5796679 5950500 6022726 6003711 5903071 
3713.603 5743325 5551519 5351613 5164372 5005032 4881535 4797135 4748660 
3717.461 4728394 4725781 4732179 4743133 4759815 4785945 4825311 4876442 
3721.318 4932069 4979190 5005501 5006305 4988709 4970543 4973693 5017400 
3725.176 5107072 5229795 5354095 5441422 5461016 5401463 5273259 5102480 
3729.033 4920105 4752479 4619510 4529704 4478011 4448184 4421806 4388301 
3732.890 4356974 4357375 4430710 4609832 4895441 5239152 5555010 5764881 
3736.748 5833752 5779051 5644995 5475411 5296804 5117835 4933443 4734022 
3740.605 4515541 4288102 4076333 3924312 3888204 4021685 4345360 4801457 
3744.463 5246328 5522994 5570615 5431725 5194450 4934649 4708297 4550395 
3748.320 4479350 4503287 4618438 4812345 5061278 5332728 5586289 5777741 
3752.177 5873683 5861526 5753197 5578234 5373418 5173023 5000507 4871851 
3756.035 4792478 4760318 4769061 4812044 4884651 4981770 5093796 5202230 
3759.892 5280101 5303814 5261185 5159980 5023400 4884819 4776867 4723738 
3763.750 4736400 4805042 4899295 4975000 4996753 4952009 4857778 4748560 
3767.607 4667334 4650052 4715632 4858783 5047334 5232914 5367480 5426794 
3771.465 5412468 5345776 5252667 5157130 5075157 5012473 4966722 4930929 
3775.322 4898189 4866155 4840455 4834190 4866222 4951741 5095070 5279497 
3779.179 5468465 5614550 5680913 5657482 5561352 5426727 5290666 5187107 
3783.037 5136644 5144020 5196395 5269235 5333432 5367279 5364192 5330346 
3786.894 5280101 5227414 5184022 5155151 5141807 5141338 5148881 5157935 
3790.752 5159879 5146065 5108749 5044719 4958008 4861363 4775158 4721259 
3794.609 4720255 4779915 4889309 5013713 5108112 5134732 5079884 4958980 
3798.467 4810101 4683946 4631599 4699420 4906231 5221244 5548801 5771999 
3802.324 5820051 5698303 5466586 5199916 4968230 4823067 4803400 4923490 
3806.181 5161287 5449575 5699143 5842484 5860115 5779554 5645901 5500611 
3810.039 5366675 5248676 5137180 5018137 4881669 4732079 4588065 4483937 
3813.896 4459733 4547917 4754523 5039959 5319746 5497792 5524907 5414145 
3817.754 5224630 5025612 4886595 4865317 4997021 5276680 5637106 5963063 
3821.611 6144162 6145002 6003846 5792112 5572931 5392506 5278055 5237475 
3825.469 5262024 5325516 5392405 5426928 5408475 5337558 5231774 5116158 
3829.326 5016126 4951071 4929723 4948725 4992965 5042071 5076330 5084913 
3833.183 5067983 5034126 4996551 4968666 4964175 4993602 5064999 5181205 
3837.041 5337122 5516618 5692025 5832980 5913383 5922788 5869586 5776163 
3840.898 5670037 5576723 5515074 5491819 5502289 5530813 5557493 5563198 
3844.756 5536585 5477122 5391399 5289794 5180333 5067313 4948993 4819046 
3848.613 4670013 4498065 4307945 4118478 3962162 3891079 3970889 4265682 
3852.470 4794321 5474069 6121411 6551323 6705579 6644644 6467910 6251681 
3856.328 6040029 5849771 5681148 5530041 5393512 5272186 5170676 5093293 
3860.185 5040696 5008752 4990585 4980597 4981033 5003758 5064162 5169570 
3864.043 5306062 5432531 5495444 5457326 5313005 5092891 4850139 4649651 
3867.900 4549324 4591782 4780049 5060876 5327897 5480277 5486350 5388447 
3871.758 5266182 5192170 5215677 5344200 5541586 5735502 5853902 5853331 
3875.615 5735670 5536149 5303344 5083337 4911392 4815897 4813786 4906868 
3879.472 5073783 5268966 5431491 5507155 5475914 5355873 5194416 5047334 
3883.330 4972587 5015221 5193612 5481283 5800642 6048463 6142280 6066707 
3887.187 5863944 5604212 5350305 5153307 5046596 5044987 5144255 5319042 
3891.045 5527994 5721602 5861223 5927793 5919832 5847387 5725564 5571387 
3894.902 5401229 5232780 5084041 4969269 4900568 4883345 4915078 4984251 
3898.760 5072341 5157297 5219030 5247267 5244484 5226073 5214403 5235194 
3902.617 5307906 5438369 5612939 5800037 5962055 6066774 6100812 6069496 
3906.474 5989870 5882080 5764612 5651540 5550445 5466217 5400558 5353357 
3910.332 5322061 5301634 5283790 5258905 5219131 5162159 5093461 5025277 
3914.189 4974732 4958645 4986731 5057658 5156895 5262829 5352217 5412233 
3918.047 5442059 5449306 5442831 5426558 5398712 5354967 5294054 5222618 
3921.904 5155554 5113510 5115622 5171280 5273829 5399283 5513497 5584410 
3925.761 5596694 5553264 5471452 5372713 5277351 5199011 5144523 5116259 
3929.619 5114616 5140399 5194718 5276143 5378349 5486887 5583268 5650130 
3933.476 5676952 5664800 5624653 5572461 5523329 5487726 5468600 5461319 
3937.334 5456386 5444442 5419781 5384018 5345407 5316526 5310757 5336786 
3941.191 5396096 5479270 5569172 5642846 5681283 5675576 5629319 5555513 
3945.049 5472458 5398914 5348493 5329910 5343763 5384790 5440918 5498766 
3948.906 5545814 5573535 5578872 5563568 5533296 5495645 5458970 5431021 
3952.763 5416762 5418339 5434175 5458768 5484907 5505074 5514235 5510645 
3956.621 5496484 5476787 5457191 5442596 5435215 5435483 5442294 5454004 
3960.478 5469774 5488699 5509739 5530813 5548432 5558567 5557929 5544908 
3964.336 5520208 5486920 5449273 5411361 5376403 5345575 5319478 5297709 
3968.193 5280168 5267692 5261890 5264103 5275104 5294356 5319579 5347654 
3972.051 5374994 5398411 5415621 5426022 5430484 5430585 5429511 5430216 
3975.908 5435383 5446555 5463533 5484437 5505813 5523329 5533296 5533330 
3979.765 5523799 5507222 5488733 5473935 5468331 5475210 5495007 5524739 
3983.623 5559272 5592095 5617202 5630460 5630393 5618410 5598607 5576052 
3987.480 5556486 5543230 5538397 5541552 5550378 5561621 5571689 5578469 
3991.338 5580416 5578872 5575247 5571924 5571287 5574408 5581691 5591793 
3995.195 5602903 5612771 5619316 5621330 5618746 5611630 5600587 5585786 
3999.052 5567326 5544740 5518430 5489538 
##END=
