##TITLE=mc_3 Sep 07 10:13:23 2026 (GMT+02:00)
##JCAMP-DX=5.01  $$ Nicolet v. 970
##DATATYPE=INFRARED SPECTRUM
##ORIGIN=Vojna akademija
##OWNER=Nicolet
##LONGDATE=2026/09/07
##TIME=10:13:50
##SPECTROMETER/DATA SYSTEM=Nicolet iS20
##DATA PROCESSING=
Ratio against background
%Transmittance->Absorbance
Truncated
ElementMultiply or ElementDivide
##COMMENTS=
Number of sample scans: 8
Collection length: 11,90 sec
Sample gain: 8,0
Background collected on: Mon Sep 07 10:04:03 2026 (GMT+02:00);
Number of background scans: 8
Background gain: 8,0
Sample spacing:  1,000
Number of scan points: 12415
Resolution points: 8286
Number of FFT points: 65536
Apodization: N-B strong;
Phase correction: Mertz;
Laser frequency: 15798,00 cm-1
Number of rejected sample scans: 0
Number of rejected background scans: 0
Bench serial number: BER2010005;
##RESOLUTION= 4,000
##XUNITS=1/CM
##YUNITS=ABSORBANCE
##FIRSTX=400.156891
##LASTX=4000.123047
##FIRSTY=-0.004124
##MAXX=4000.123047
##MINX=400.156891
##MAXY=0.267910
##MINY=-0.013829
##XFACTOR=1.000000
##YFACTOR=1.000000E-009
##NPOINTS=7468
##DELTAX=0.482117
##ZPD=6100
##XYDATA=(X++(Y..Y))
400.157 -4123705 -7555356 -10498527 -12683527 -13829436 -13753459 -12458817 
403.532 -10148439 -7222015 -4191803 -1643746 -40289 393081 -273071 -1729297 
407.389 -3534794 -5245158 -6532599 -7176781 -7100968 -6358923 -5113309 
410.763 -3588723 -2020907 -641597 378489 947075 1074440 868781 504394 153437 
415.103 -79514 -170706 -170971 -166102 -231677 -368161 -460418 -299296 
418.959 260843 1149083 2086451 2786880 3084774 2978903 2591209 2120511 
422.816 1789207 1774801 2165930 2903878 3801858 4598011 5064195 5049647 
426.673 4503689 3470705 2072368 490329 -1072614 -2393193 -3274356 -3578602 
430.530 -3242160 -2310113 -933078 646959 2176819 3440546 4304064 4735429 
434.387 4779145 4533587 4114498 3643250 3217441 2897574 2708788 2643944 
438.244 2673781 2754668 2840639 2888868 2870457 2779044 2631343 2457767 
442.101 2284027 2117515 1940782 1727328 1460283 1152571 846736 600870 453245 
446.440 402002 386581 313196 87582 -329260 -894823 -1486529 -1943528 
450.297 -2115220 -1900149 -1290474 -382066 644869 1602498 2344453 2811324 
454.154 3023344 3042630 2931165 2726292 2444871 2097604 1712658 1353412 
458.011 1099519 1015718 1123337 1403271 1820516 2351149 2988211 3729064 
461.868 4550462 5391600 6144599 6688755 6929945 6833164 6438517 5850275 
465.725 5209741 4642416 4227170 3962731 3779129 3573923 3273090 2872958 
469.582 2449036 2130966 2063179 2359677 3050604 4058072 5198474 6249933 
473.439 7002403 7331239 7214221 6707262 5913886 4959416 3986439 3126856 
477.296 2485491 2114651 1992207 2029489 2101000 2096206 1943412 1639148 
481.152 1241449 853841 579635 485320 581361 822369 1129017 1416468 1628639 
485.492 1748818 1800020 1826472 1875653 1980923 2150646 2368672 2600475 
489.348 2803254 2939738 2994550 2983741 2952882 2959387 3053874 3250189 
493.205 3515230 3771074 3926017 3911607 3701627 3326408 2861384 2405154 
497.062 2035748 1791070 1658572 1595315 1556740 1528077 1533031 1629071 
500.919 1874256 2292421 2849311 3459316 4017906 4443731 4710675 4845146 
504.776 4904288 4939274 4974665 4993434 4948591 4781021 4451498 3959554 
508.633 3344005 2667013 1996467 1394263 903078 553060 360150 324934 435135 
512.972 666903 991374 1377775 1800453 2238596 2669513 3068323 3403343 
516.829 3640711 3758775 3759744 3679505 3576462 3519906 3558222 3698552 
520.686 3902179 4100483 4220646 4209304 4053724 3780800 3445255 3102995 
524.543 2798052 2550345 2360144 2224974 2152943 2164331 2278198 2491356 
528.400 2765272 3026881 3195043 3204223 3038492 2744564 2428111 2214484 
532.257 2197732 2413117 2818728 3316025 3775319 4088475 4193077 4085699 
536.114 3810682 3438409 3040661 2669813 2361676 2135029 1996700 1945475 
539.971 1972135 2062214 2198565 2369172 2573609 2823997 3136368 3518102 
543.828 3949857 4380268 4725647 4894403 4821559 4494148 3968315 3352953 
547.685 2783079 2363875 2148215 2118247 2200363 2286325 2275833 2115184 
551.542 1808039 1416268 1033885 766967 695808 856231 1229653 1750149 2319335 
555.881 2831468 3206960 3401807 3421543 3313387 3157127 3036991 3018439 
559.738 3136368 3384676 3722246 4082822 4398141 4609731 4684817 4622390 
563.594 4448820 4208635 3947651 3704768 3497793 3321567 3150618 2951781 
567.451 2697485 2378201 2009816 1631732 1296480 1049827 923001 921938 
571.308 1031792 1223307 1465204 1731220 2002193 2267439 2520283 2755001 
575.165 2967427 3154323 3315924 3455809 3578433 3684517 3770205 3825724 
579.022 3840065 3806070 3724117 3602855 3456043 3296927 3132429 2965392 
582.879 2799419 2644577 2522783 2461532 2482859 2591475 2766305 2963457 
586.736 3126122 3207861 3184062 3061082 2870056 2657978 2470862 2339856 
590.593 2280762 2294486 2372071 2497088 2646877 2790548 2886667 2894806 
594.450 2781578 2538180 2188108 1792035 1432258 1185429 1106162 1206095 
598.307 1456061 1797226 2165996 2509652 2797185 3021876 3189636 3308412 
602.164 3379600 3399636 3365775 3284207 3173448 3059480 2966359 2908215 
606.021 2883098 2876594 2868622 2842907 2791682 2715223 2617342 2500421 
609.878 2363042 2202428 2019036 1821781 1627275 1458122 1333171 1263879 
613.735 1252282 1292891 1377775 1500346 1657076 1842643 2047632 2255715 
617.592 2445937 2600075 2710355 2783012 2836104 2892471 2968661 3067288 
621.448 3174649 3265745 3314555 3303137 3229325 3107166 2963924 2830167 
625.305 2732728 2690717 2709888 2783212 2891737 3009431 3103896 3144010 
629.162 3108701 2990847 2801620 2568443 2328429 2113553 1943545 1821980 
633.019 1739570 1682421 1642874 1623883 1638550 1701448 1816923 1973034 
636.876 2140889 2283660 2365607 2367906 2291388 2157305 1996334 1839848 
640.733 1709597 1613074 1545667 1495858 1453003 1410783 1370064 1337790 
644.590 1324230 1339419 1389842 1476640 1594949 1732883 1874888 2005222 
648.447 2111322 2188274 2239961 2276299 2306877 2336258 2359444 2364675 
652.304 2338257 2271569 2168094 2043671 1922111 1826040 1772173 1764820 
656.161 1798224 1861544 1945176 2044869 2161135 2295318 2446204 2606042 
660.018 2764405 2911984 3045332 3167240 3283973 3397432 3500499 3575427 
663.875 3601552 3561228 3448194 3269384 3047301 2820395 2639210 2563844 
667.732 2633009 2827432 3061949 3248319 3346609 3363605 3325774 3256932 
671.589 3170811 3068924 2947077 2798952 2624742 2434542 2249220 2095240 
675.446 2000062 1981222 2040142 2160069 2311441 2457966 2568377 2625409 
679.302 2626776 2584109 2515118 2436441 2356679 2274667 2184245 2083388 
683.159 1980856 1900945 1876186 1939418 2107859 2372570 2695651 3016571 
687.016 3270219 3399870 3381403 3230560 3002891 2772908 2616142 2588975 
690.873 2711288 2967193 3308779 3676898 4010649 4267891 4432183 4512092 
694.730 4535362 4538375 4557762 4617969 4728428 4884886 5073883 5279598 
698.587 5490477 5703306 5923023 6159991 6424091 6722236 7053622 7412324 
702.444 7786672 8164786 8534343 8882943 9198687 9466199 9668856 9792468 
706.301 9831036 9792773 9703618 9606420 9549954 9581048 9736622 10034745 
710.158 10475813 11043746 11712691 12451541 13229769 14023322 14813939 
713.533 15592810 16361415 17134072 17933902 18790076 19730770 20772900 
716.908 21918208 23149674 24437534 25740614 27015316 28220606 29313254 
720.282 30248802 30980896 31461510 31655702 31550470 31163980 30541868 
723.657 29754552 28881752 27994656 27153420 26395242 25732704 25155992 
727.032 24638778 24146176 23641954 23100540 22512512 21888866 21256750 
730.407 20655124 20119778 19671550 19311866 19022922 18776168 18541450 
733.782 18300566 18051702 17808090 17589352 17412832 17284550 17195532 
737.156 17124836 17047018 16941960 16800212 16626114 16434811 16247651 
740.531 16084053 15955992 15864635 15800031 15742993 15670162 15561729 
743.906 15405187 15201210 14963820 14718778 14495252 14317965 14199940 
747.281 14138663 14116585 14104845 14073699 13996801 13857893 13652588 
750.656 13386074 13071300 12723829 12363339 12010029 11684575 11407563 
754.031 11194506 11053908 10983252 10969455 10988452 11010575 11010610 
757.405 10971494 10893004 10791259 10696567 10642098 10654594 10745914 
760.780 10906424 11107579 11308997 11474410 11578595 11616539 11602790 
764.155 11566277 11537524 11537047 11572266 11634271 11706053 11768997 
767.530 11812643 11834605 11837703 11824186 11789117 11718614 11595508 
770.905 11406441 11152145 10851521 10541600 10263653 10054378 9934354 
774.279 9902488 9938455 10009822 10084933 10136652 10148929 10114573 
777.654 10031693 9899471 9717985 9490582 9226270 8942434 8663988 8415920 
781.511 8219216 8083662 8005219 7967251 7946632 7921323 7875637 7804517 
785.368 7712296 7609102 7504617 7405516 7312705 7223520 7134352 7044462 
789.225 6956375 6876317 6809905 6757907 6714160 6665605 6596097 6491923 
793.082 6348636 6175115 5993398 5832376 5722945 5687695 5734361 5856051 
796.939 6032873 6240051 6451431 6647538 6817613 6958563 7073087 7166352 
800.796 7243060 7305596 7354660 7389237 7409055 7414482 7408246 7395304 
804.653 7385362 7390215 7424762 7503404 7636112 7825164 8062159 8329985 
808.510 8603757 8858357 9074838 9244852 9372203 9470636 9557981 9647207 
812.367 9742585 9836527 9912962 9952897 9941506 9874523 9759969 9616074 
816.224 9465218 9329376 9222514 9147215 9096222 9055994 9011236 8951329 
820.081 8874589 8786806 8699548 8623427 8563405 8514238 8462643 8389604 
823.938 8279055 8124813 7934754 7729869 7540049 7394158 7308932 7283458 
827.794 7297239 7317592 7305865 7233088 7089388 6887426 6657631 6439492 
831.651 6269396 6166679 6130317 6138953 6162612 6171350 6148396 6094327 
835.508 6025515 5965515 5936223 5951709 6014126 6118353 6255547 6419147 
839.365 6604541 6806338 7015300 7213851 7379700 7492852 7541263 7528722 
843.222 7473772 7405955 7352773 7332082 7345494 7380778 7418256 7442356 
847.079 7448524 7445053 7447817 7471514 7522316 7593591 7669059 7727946 
850.936 7754694 7742247 7692667 7614935 7519888 7418088 7318198 7230426 
854.793 7166352 7138529 7156247 7220117 7318063 7424795 7509606 7541870 
858.650 7500336 7379296 7188618 6950853 6694542 6451229 6250707 6118790 
862.507 6076552 6134551 6288491 6515131 6776249 7023516 7211998 7315300 
866.364 7330835 7281605 7204115 7136912 7102961 7103096 7118791 7124719 
870.221 7101142 7044630 6968664 6898266 6856356 6853360 6884464 6933716 
874.078 6984691 7029207 7073492 7133308 7226384 7360457 7527373 7702246 
877.935 7853672 7951660 7979400 7938263 7845676 7727744 7610417 7514427 
881.792 7451322 7425267 7435952 7481424 7560481 7671690 7812648 7977579 
885.648 8155502 8331978 8487037 8601222 8657565 8645330 8563405 8422203 
889.505 8242042 8047105 7860690 7697321 7560143 7441952 7332149 7224194 
893.362 7122092 7040286 6998732 7014424 7091173 7215030 7356177 7480345 
897.219 7556030 7567392 7516416 7420751 7304080 7184812 7071336 6959944 
901.076 6841175 6706656 6557143 6405058 6272455 6181937 6151824 6188255 
904.933 6283280 6416457 6561044 6690773 6783754 6828317 6822561 6774499 
908.790 6698311 6612077 6534135 6478100 6452440 6458930 6494176 6552803 
912.647 6629134 6720385 6826566 6948799 7087333 7239253 7397933 7554007 
916.504 7697895 7823274 7928174 8013656 8081130 8128391 8147467 8125894 
920.361 8049502 7909851 7709160 7462918 7196030 6938833 6718299 6549507 
924.218 6434582 6363598 6321538 6294878 6279750 6282574 6317436 6397694 
928.075 6529123 6705243 6908735 7116804 7309774 7478727 7627142 7767209 
931.932 7912448 8069687 8233905 8388321 8509947 8579424 8587467 8540223 
935.789 8456698 8364810 8292192 8258320 8272267 8331472 8424906 8535762 
939.646 8646816 8742414 8810407 8844729 8845912 8821261 8782140 8742313 
943.502 8712496 8696100 8689474 8682917 8666623 8635426 8592334 8548300 
947.359 8517651 8510217 8527146 8558809 8588987 8601121 8586082 8545968 
951.216 8493491 8445886 8416832 8412407 8428724 8455582 8482645 8505114 
955.073 8525220 8550327 8587129 8636879 8692517 8741805 8770273 8769360 
958.930 8739034 8689474 8635798 8593550 8574050 8580877 8611463 8659728 
962.787 8719459 8786942 8860487 8939998 9024531 9111076 9194931 9270407 
966.644 9333202 9381987 9419233 9449471 9479136 9513341 9554763 9601779 
970.501 9648461 9686034 9704228 9695047 9655575 9589212 9504773 9414594 
974.358 9329376 9254160 9185894 9114797 9028116 8915341 8773248 8607407 
978.215 8432237 8264061 8117757 8001101 7913495 7847565 7791732 7735502 
982.072 7670948 7595580 7511056 7422807 7337642 7262433 7202801 7161872 
985.929 7139775 7133746 7139775 7153484 7172819 7198624 7233964 7281841 
989.786 7342629 7411920 7480446 7536307 7568438 7571135 7545916 7501886 
993.643 7451491 7407202 7377105 7362613 7360457 7364770 7371005 7377476 
997.500 7385766 7399315 7420886 7451322 7488469 7528621 7567426 7600975 
1001.356 7625658 7638203 7635202 7613789 7573293 7516922 7452334 7391159 
1005.213 7346539 7327971 7338417 7371746 7414515 7447985 7454322 7421829 
1009.070 7348291 7241915 7118959 7001325 6908702 6855817 6848816 6883588 
1012.927 6947857 7024627 7098111 7155775 7191785 7205866 7202195 7184980 
1016.784 7157931 7122327 7079486 7032810 6989944 6961021 6958125 6988934 
1020.641 7053958 7144423 7243869 7333733 7395709 7418661 7399315 7341180 
1024.498 7252258 7142638 7023684 6906716 6805665 6735730 6710526 6740206 
1028.356 6825691 6957082 7114176 7271025 7401337 7483042 7504752 7465648 
1032.213 7375757 7251517 7114210 6985870 6884464 6823470 6807751 6831784 
1036.070 6881064 6936477 6979270 6997419 6989506 6964758 6938598 6924357 
1039.928 6928262 6944389 6958395 6952267 6913651 6841881 6749528 6655982 
1043.785 6581598 6537633 6521622 6518124 6503291 6456038 6362993 6226202 
1047.643 6060222 5891719 5749940 5660537 5642611 5703205 5837346 6029513 
1051.500 6258102 6497573 6723481 6917017 7064937 7161400 7206978 7207181 
1055.358 7169518 7102220 7014491 6915334 6815022 6724120 6651608 6602926 
1059.215 6578537 6573289 6577729 6581699 6577797 6563534 6542914 6524817 
1063.072 6520546 6538474 6581934 6645687 6717121 6777797 6808391 6795971 
1066.930 6736874 6640203 6525120 6416659 6336095 6294408 6288760 6304762 
1070.787 6322446 6326480 6313637 6294811 6290306 6318411 6387572 6487921 
1074.645 6595391 6677752 6710257 6683472 6607771 6507226 6410337 6338012 
1078.502 6295483 6275111 6261867 6244488 6219917 6196154 6184189 6191617 
1082.359 6214943 6240387 6247950 6223480 6164662 6085120 6008280 5960678 
1086.217 5959099 6005089 6084515 6174845 6253261 6304896 6328060 6331758 
1090.074 6330548 6336331 6353713 6377048 6393221 6384513 6335423 6237698 
1093.932 6092647 5911166 5712605 5520208 5354598 5229695 5149787 5109520 
1097.789 5097451 5102144 5117064 5142310 5182513 5242606 5322195 5413575 
1101.647 5502457 5573569 5617302 5634555 5637778 5645733 5676885 5741915 
1105.504 5839058 5955202 6071915 6171115 6240488 6276355 6281969 6264589 
1109.361 6231379 6189398 6145204 6105651 6078870 6072150 6088447 6124234 
1113.219 6169233 6209464 6230471 6224623 6192390 6143154 6089153 6041507 
1117.076 6004685 5974921 5941934 5894507 5825290 5734831 5631903 5531551 
1120.934 5451252 5405020 5401564 5441959 5519940 5624855 5742922 5863003 
1124.791 5976332 6078602 6169670 6251177 6325370 6392650 6452171 6501879 
1128.649 6540862 6571002 6597409 6627586 6668129 6721933 6786346 6854134 
1132.506 6915738 6963041 6992705 7006309 7009474 7007622 7003413 6996106 
1136.363 6982907 6962839 6940719 6926781 6935770 6980079 7064601 7182117 
1140.221 7315806 7442659 7541229 7600773 7623939 7626266 7630211 7657593 
1144.078 7722145 7824927 7954731 8092642 8217662 8312051 8367174 8384030 
1147.936 8372951 8349104 8330594 8333195 8365959 8430953 8521773 8626333 
1151.793 8729635 8819368 8888421 8937157 8973079 9007446 9051426 9111211 
1155.651 9185759 9265905 9337501 9384188 9393160 9358795 9284218 9179668 
1159.508 9060493 8942907 8837965 8750393 8677339 8611564 8544988 8474604 
1163.365 8404603 8347212 8317861 8329817 8388151 8486564 8607812 8727201 
1167.223 8822208 8875637 8881082 8842767 8772369 8683863 8588041 8490856 
1171.080 8392746 8289659 8176232 8047511 7901550 7739650 7566887 7393046 
1174.938 7230730 7092823 6990786 6929777 6906850 6910654 6925131 6933480 
1178.795 6923245 6890388 6838886 6779548 6723616 6681218 6657934 6654973 
1182.652 6671393 6704637 6751681 6806843 6862381 6907860 6932302 6928666 
1186.510 6897054 6846358 6791630 6750605 6736235 6751749 6789880 6836631 
1190.367 6876788 6899006 6901296 6889378 6874870 6868979 6879044 6906278 
1194.225 6946543 6992301 7034932 7067463 7083797 7080059 7054632 7008598 
1198.082 6946173 6875980 6808155 6751850 6713083 6692120 6684414 6683236 
1201.940 6683102 6681991 6682698 6690336 6709214 6740812 6781903 6826062 
1205.797 6866555 6899781 6925535 6947082 6968530 6992066 7016983 7040084 
1209.654 7056956 7064601 7062479 7051871 7034662 7011292 6981358 6943614 
1213.512 6898737 6850330 6805362 6772581 6759119 6768071 6796577 6837741 
1217.369 6882175 6920754 6947823 6961762 6964456 6959708 6952132 6946308 
1221.227 6945601 6952772 6968765 6991863 7017994 7040892 7054026 7052746 
1225.084 7037121 7012303 6987621 6972940 6975567 6997184 7033113 7073929 
1228.942 7109596 7132937 7142402 7142672 7143312 7155708 7188618 7246227 
1232.799 7326151 7419807 7513247 7590826 7638742 7647375 7614463 7546017 
1236.656 7455232 7358805 7273956 7214087 7185351 7186597 7211088 7249361 
1240.514 7292724 7334912 7373263 7407875 7440266 7472525 7506100 7541870 
1244.371 7580845 7623028 7668486 7716343 7765083 7814301 7863321 7913057 
1248.229 7965293 8020711 8078835 8136393 8188185 8229109 8256462 8270916 
1252.086 8276894 8281082 8288005 8298407 8307627 8307391 8289389 8249067 
1255.943 8187745 8113133 8036135 7966610 7910525 7869799 7842437 7827053 
1259.801 7824557 7838962 7875873 7938836 8026819 8133354 8248864 8362513 
1263.658 8465887 8554822 8629207 8691131 8743530 8789173 8830121 8868603 
1267.516 8907022 8947778 8991954 9039010 9086308 9131107 9171749 9209280 
1271.373 9247932 9292849 9347184 9409549 9472634 9525669 9557101 9559303 
1275.231 9532443 9484317 9428374 9380024 9352261 9352261 9380193 9431185 
1279.088 9496679 9566144 9630167 9681358 9715443 9731946 9734792 9731471 
1282.945 9730387 9739637 9763121 9799246 9841848 9882759 9915844 9939811 
1286.803 9960017 9985547 10027047 10090935 10177692 10281466 10393442 
1290.178 10504496 10608857 10704819 10793263 10875745 10951820 11019513 
1293.553 11076783 11122909 11161052 11197056 11237925 11288524 11349434 
1296.929 11416135 11481112 11537966 11583325 11618002 11646966 11675590 
1300.304 11706905 11740775 11773593 11802088 11824424 11843015 11863514 
1303.679 11892765 11934960 11989932 12051757 12111004 12157478 12182865 
1307.054 12183819 12161261 12119725 12064533 12001070 11932848 11861981 
1310.430 11790241 11719840 11653466 11594181 11543887 11501696 11463897 
1313.805 11423993 11374841 11311309 11232247 11140995 11045547 10954402 
1317.180 10875541 10812557 10762760 10719219 10673746 10620129 10558269 
1320.555 10493770 10436815 10397582 10383023 10394121 10426294 10470790 
1323.931 10516412 10553822 10576908 10583052 10573342 10551683 10524151 
1327.306 10498352 10484096 10491665 10530126 10605190 10716808 10859403 
1330.681 11021858 11191174 11356508 11511665 11656904 11798344 11945654 
1334.056 12107698 12290288 12493994 12714718 12944124 13172762 13392430 
1337.432 13596380 13780418 13943046 14084412 14206514 14313205 14409510 
1340.807 14499671 14586081 14668840 14745994 14814591 14873083 14922872 
1344.182 14969067 15019313 15081915 15163260 15264628 15382565 15509943 
1347.557 15638869 15763987 15883503 16000027 16117821 16239773 16364891 
1350.932 16487326 16598608 16690498 16759023 16806790 16843610 16884326 
1354.308 16943648 17033784 17160062 17321410 17512002 17726040 17960458 
1357.683 18216976 18502204 18827100 19206226 19656712 20200408 20863280 
1361.058 21670116 22637742 23759842 24996586 26275052 27509528 28627882 
1364.433 29585258 30367434 30978832 31434010 31754970 31975400 32146234 
1367.809 32332592 32612744 33057448 33713040 34600136 35716312 37053080 
1371.184 38610232 40407984 42480520 44854460 47517672 50376852 53246592 
1374.559 55897444 58114768 59770128 60824452 61285164 61164612 60459724 
1377.934 59163024 57294572 54929296 52203012 49270988 46285156 43357424 
1381.310 40552524 37909824 35452124 33192944 31135252 29262212 27535404 
1384.685 25899554 24298190 22688464 21059014 19438808 17887286 16467709 
1388.060 15219774 14148488 13236259 12460440 11803008 11252411 10797407 
1391.435 10422051 10103449 9814260 9529259 9234359 8929750 8630897 8358392 
1395.293 8127210 7939242 7787785 7664810 7568505 7503639 7475390 7483177 
1399.150 7515202 7552254 7577777 7583914 7573529 7553906 7532093 7508831 
1403.008 7480278 7440570 7389440 7335687 7297543 7292050 7325949 7390957 
1406.865 7468244 7537420 7586814 7618678 7647173 7690239 7760698 7857890 
1410.723 7967454 8067999 8142875 8189772 8220904 8256496 8312659 8394975 
1414.580 8496329 8602100 8698601 8781971 8859980 8950856 9072571 9232802 
1418.437 9419978 9608181 9773999 9914488 10046206 10192991 10371621 10588825 
1422.295 10843232 11131136 11449031 11796199 12172642 12575470 12996526 
1425.670 13425509 13854848 14286633 14735334 15228490 15799893 16479410 
1429.045 17282342 18200872 19209654 20277994 21381130 22503998 23636460 
1432.421 24770234 25893540 26998778 28090542 29190728 30345794 31618818 
1435.796 33064958 34681164 36383888 38041816 39551092 40885392 42084148 
1439.171 43213888 44343828 45527012 46794796 48155496 49599988 51108180 
1442.546 52654924 54218048 55776076 57308256 58798704 60238364 61632828 
1445.922 63006492 64399928 65856496 67404136 69043728 70746696 72479040 
1449.297 74228224 76010816 77866704 79834320 81927152 84112632 86316440 
1452.672 88451384 90438312 92242576 93874592 95371176 96772280 98090904 
1456.047 99289920 100277024 100966576 101357432 101532032 101593616 
1458.940 101593576 101537312 101414544 101221536 100964984 100654184 
1461.833 100287128 99838856 99253976 98455144 97359664 95916544 94135016 
1465.209 92066664 89761560 87231128 84440672 81356624 77980048 74367840 
1468.584 70602240 66777848 62958152 59128700 55216628 51114296 46767116 
1471.959 42277596 37950540 34163748 31136674 28839790 27073146 25602468 
1475.334 24267530 22992504 21775940 20651336 19650714 18779212 18016128 
1478.710 17329410 16690843 16083710 15503075 14949724 14423588 13921012 
1482.085 13437538 12972628 12533826 12133457 11785236 11495232 11257885 
1485.460 11055063 10862019 10656360 10427142 10179287 9928387 9692268 
1488.835 9478323 9280765 9086443 8889639 8696539 8522719 8379639 8270038 
1492.693 8185855 8113673 8038228 7948049 7837241 7707844 7566988 7424189 
1496.550 7284031 7144356 6999877 6849219 6698580 6559666 6443124 6352738 
1500.408 6283986 6226169 6167553 6099939 6020643 5932260 5839663 5746817 
1504.265 5656273 5568132 5481552 5398108 5324677 5268195 5222216 5167491 
1508.122 5083706 4964108 4816232 4654808 4499571 4369859 4283450 4249253 
1511.980 4265080 4318922 4393857 4474496 4549458 4611942 4656818 4677181 
1515.837 4665693 4617735 4538375 4443464 4354865 4289373 4254172 4246944 
1519.695 4255844 4260496 4233627 4153201 4015097 3839095 3653140 3477352 
1523.552 3318061 3174683 3047001 2937803 2852913 2797952 2773742 2774242 
1527.410 2789148 2809557 2830200 2850845 2873325 2899842 2930397 2963090 
1531.267 2993750 3017505 3029450 3025780 3006094 2974566 2938037 2902811 
1535.124 2873559 2853413 2845709 2854781 2885533 2942006 3022309 3115409 
1538.982 3194309 3221647 3172914 3059847 2926695 2813992 2740630 2703553 
1542.839 2689650 2683516 2673081 2650444 2614042 2567943 2520416 2481659 
1546.697 2459999 2462432 2492856 2550445 2626542 2703453 2759536 2776909 
1550.554 2752267 2697585 2633143 2577109 2541113 2528015 2532214 2542913 
1554.411 2550812 2554278 2560411 2580842 2625576 2695785 2775842 2823397 
1558.269 2769607 2575109 2307177 2096106 2001127 2002492 2056454 2129268 
1562.126 2199264 2255316 2293620 2314838 2323066 2324665 2326231 2333026 
1565.984 2348617 2376168 2418248 2476561 2549612 2630442 2703786 2751767 
1569.841 2762804 2740363 2698919 2654511 2616875 2588142 2564977 2541646 
1573.699 2513218 2477727 2439073 2407586 2398524 2423546 2481992 2561177 
1577.556 2645744 2725359 2795350 2854447 2899642 2926094 2928796 2903812 
1581.413 2852246 2780511 2699752 2621776 2555444 2506619 2477327 2467963 
1585.271 2478760 2510585 2563444 2635009 2719190 2804955 2878995 2929630 
1589.128 2949612 2939671 2907214 2863619 2818961 2780978 2753634 2738462 
1592.986 2735928 2747699 2775075 2818128 2873925 2936302 2996786 3047935 
1596.843 3086509 3113774 3134265 3152921 3172747 3193107 3210865 3222281 
1600.701 3225352 3221246 3213535 3206326 3202487 3202787 3206092 3211833 
1604.558 3220479 3234299 3255329 3283105 3313621 3338963 3349881 3339798 
1608.415 3307811 3259636 3204656 3151353 3103595 3060214 3016003 2965825 
1612.273 2907214 2841240 2772274 2705054 2642443 2584509 2527915 2466997 
1616.130 2397358 2320235 2242859 2174721 2121111 2083155 2058685 2045102 
1619.988 2040641 2044702 2056754 2074732 2093476 2104729 2099369 2072934 
1623.845 2028357 1975264 1923176 1879114 1845871 1822147 1805677 1794863 
1627.703 1790172 1794531 1811998 1844573 1891161 1947805 2008484 2067207 
1631.560 2120112 2164465 2199564 2224874 2237863 2233167 2201462 2133098 
1635.417 2026992 1898116 1773071 1673473 1607786 1573599 1565153 1577024 
1639.275 1604926 1645767 1694396 1745458 1792102 1828169 1850563 1859181 
1643.132 1857617 1850896 1844740 1843342 1848167 1855854 1858682 1848200 
1646.990 1820084 1779026 1734048 1693398 1660501 1636854 1623151 1622419 
1650.847 1641144 1690371 1782354 1918850 2068506 2165164 2164065 2086717 
1654.704 1982021 1883008 1800253 1732351 1672276 1612409 1546797 1474180 
1658.562 1398085 1327188 1272253 1242579 1243676 1275577 1330246 1393830 
1662.419 1451008 1490405 1509423 1514211 1514078 1516705 1526381 1543971 
1666.277 1568345 1597576 1628506 1656943 1676667 1680325 1661932 1620490 
1670.134 1562492 1499249 1442098 1397852 1367904 1349290 1335630 1318913 
1673.992 1291262 1248328 1193569 1138518 1097791 1081515 1091281 1122572 
1677.849 1168285 1220515 1271888 1314858 1344670 1359727 1362685 1359494 
1681.706 1356769 1361189 1376546 1402872 1432690 1453202 1455529 1442963 
1685.564 1426374 1415570 1415537 1427671 1450409 1479799 1509091 1529806 
1689.421 1534361 1518201 1481860 1430164 1370795 1311103 1255970 1207225 
1693.279 1163900 1122539 1079190 1031892 983736 944252 925092 933028 967331 
1697.618 1023688 1097492 1185396 1281492 1372557 1438641 1462843 1446054 
1701.476 1403071 1350420 1297510 1247796 1202706 1163069 1129848 1105132 
1705.333 1089885 1084272 1086763 1095532 1108886 1126160 1146525 1168784 
1709.191 1190977 1210747 1226330 1237329 1245603 1253744 1264909 1281027 
1713.048 1301697 1323998 1343341 1354209 1353079 1339552 1317550 1292957 
1716.905 1272486 1260224 1256901 1259526 1264843 1271323 1279033 1288271 
1720.763 1299172 1310538 1320043 1323998 1318547 1300700 1269761 1227194 
1724.620 1177189 1125529 1078060 1041291 1021198 1022725 1048698 1099718 
1728.478 1172505 1259061 1348194 1427438 1486182 1519298 1526414 1511917 
1732.335 1481927 1445223 1412512 1394030 1394163 1407592 1424645 1436912 
1736.193 1441666 1438774 1430563 1420291 1411481 1408290 1413343 1426707 
1740.050 1445024 1463242 1475909 1478536 1467963 1441666 1398916 1340848 
1743.907 1271323 1196294 1123071 1058928 1009108 977127 963014 964575 976862 
1748.247 994396 1012762 1029334 1043583 1055507 1065206 1072115 1076267 
1752.104 1079489 1084438 1094569 1112175 1137754 1169182 1202174 1230484 
1755.962 1247995 1251318 1242014 1225666 1208155 1191941 1175661 1154897 
1759.819 1124466 1082312 1030929 978655 936050 910283 901119 901352 901219 
1764.159 892819 872499 841392 804211 767432 738987 725113 729494 751965 
1768.498 788809 835150 885581 935120 978921 1010968 1024784 1016814 989016 
1772.838 948801 905668 865594 830204 798269 767930 738423 709847 682401 
1777.178 655786 628377 598282 564672 530634 502834 490959 502967 540056 
1781.517 595097 655388 707026 738887 745691 729030 696571 658076 622073 
1785.857 592608 568554 547221 527151 510033 500645 504294 524828 561852 
1790.196 610924 663120 708652 741410 761424 775133 789074 806402 824793 
1794.536 839034 844081 837640 820112 794584 764212 731088 695509 657047 
1798.876 616365 577844 548913 538198 550307 583086 626353 667268 693917 
1803.215 699857 685421 656881 622836 590750 565435 547951 536605 528511 
1807.555 521080 512687 502171 488504 469597 443526 409663 370364 331632 
1811.894 300397 283322 282990 297844 322712 350832 376167 394540 405020 
1816.234 409995 413444 419149 428966 441901 454273 460973 457125 439845 
1820.574 408933 367678 321287 276326 237801 208396 186584 166663 140080 
1824.913 99579 43440 -22431 -86603 -135894 -157060 -140730 -81336 20013 
1829.253 154365 304177 447971 569284 659901 719173 749243 751301 724782 
1833.592 669160 586669 484059 372918 268501 184827 133451 120061 143626 
1837.932 196860 267507 342442 408867 458021 485618 490826 475800 443957 
1842.272 399249 344962 283885 219999 159072 110615 85494 92321 135970 214562 
1847.093 320259 438452 551037 639128 688009 692489 657180 594068 516070 
1851.433 434704 356171 282393 213236 149228 92752 48577 22697 19715 41187 
1856.255 83837 139583 196164 241415 264987 261539 231768 182507 125132 73033 
1861.077 39000 30815 48908 86985 133849 176010 202131 206507 189733 159238 
1865.898 125529 99479 87449 89736 99479 105975 99214 76148 41982 7157 -18587 
1871.202 -29620 -25943 -12888 795 4307 -11132 -51520 -118272 -208329 -313467 
1876.024 -423015 -524195 -603878 -649703 -652713 -606757 -511917 -374783 
1879.881 -209985 -37009 122679 250068 333887 370364 363864 323177 260014 
1884.221 184695 103887 21703 -59703 -136855 -203825 -253500 -280157 -284130 
1888.561 -275091 -273435 -303534 -382165 -510428 -670380 -829380 -949279 
1892.418 -998472 -957974 -826900 -622308 -379417 -141624 53713 182540 241050 
1896.758 240686 200573 138787 68924 927 -58179 -101146 -120094 -108334 
1901.097 -62883 12889 108560 206772 288693 338795 347383 312632 238730 
1905.437 133285 4108 -140863 -292739 -442577 -578168 -685895 -752252 -767104 
1909.776 -727411 -640406 -522110 -393288 -274395 -182662 -128839 -118007 
1913.634 -149243 -217437 -313765 -426556 -543985 -652614 -739253 -791810 
1917.491 -802559 -771337 -708324 -632002 -561623 -514465 -502154 -529887 
1921.349 -595242 -688244 -791480 -883316 -946435 -973578 -970834 -954205 
1925.206 -944187 -959462 -1009149 -1089669 -1184317 -1268306 -1312178 
1928.581 -1292324 -1196675 -1027198 -799550 -537896 -270422 -21702 188374 
1932.439 343603 432481 448634 392650 272546 105014 -89154 -290124 -481634 
1936.778 -657047 -818467 -974173 -1133195 -1298865 -1464009 -1610802 
1940.154 -1713356 -1745501 -1692431 -1561942 -1389041 -1228461 -1141886 
1943.529 -1171066 -1326547 -1582015 -1885007 -2163753 -2346728 -2383043 
1946.904 -2249597 -1961241 -1564121 -1128304 -724666 -405172 -194420 -84086 
1950.762 -43270 -34126 -30647 -27500 -43237 -109957 -260223 -510361 -851240 
1955.101 -1246237 -1642261 -1981856 -2218347 -2329887 -2321351 -2222007 
1958.476 -2071462 -1912883 -1782163 -1697811 -1659590 -1648697 -1636682 
1961.852 -1593933 -1505813 -1381709 -1257668 -1184746 -1216236 -1380222 
1965.227 -1662792 -1998743 -2282987 -2405583 -2282295 -1899292 -1321757 
1968.602 -679114 -108069 282526 438750 365025 114294 -234293 -605863 -942369 
1972.942 -1214881 -1417874 -1554877 -1628793 -1642063 -1602945 -1531501 
1976.317 -1460772 -1429499 -1461763 -1559400 -1696062 -1831229 -1923142 
1979.692 -1951280 -1920437 -1855479 -1785859 -1730551 -1693686 -1666027 
1983.068 -1635857 -1601625 -1577723 -1591721 -1669129 -1820572 -2026085 
1986.443 -2237763 -2394610 -2436687 -2333545 -2093358 -1759823 -1393533 
1989.818 -1060253 -813209 -681463 -670148 -759199 -915191 -1095982 -1260311 
1993.675 -1372956 -1407371 -1350694 -1208108 -1004918 -778581 -573966 
1997.051 -430363 -367698 -382231 -448469 -532965 -604441 -648578 -668858 
2000.908 -680007 -696151 -721192 -746232 -754072 -732770 -685135 -630579 
2004.766 -602455 -630215 -723309 -862748 -1005943 -1106558 -1135013 -1099915 
2008.623 -1043924 -1032619 -1121860 -1336160 -1652889 -2012365 -2330448 
2011.998 -2530614 -2567638 -2433392 -2158643 -1798398 -1414373 -1053840 
2015.373 -743785 -493813 -299759 -151396 -35518 61070 152841 249836 354844 
2019.713 456694 531895 550904 484789 322878 74690 -229690 -555037 -870651 
2024.053 -1161086 -1427583 -1679427 -1920536 -2138432 -2300753 -2363930 
2027.428 -2291722 -2071100 -1725897 -1316009 -925176 -626708 -471142 -472102 
2031.285 -606955 -829976 -1089272 -1339397 -1548802 -1703455 -1805426 
2034.661 -1867060 -1907836 -1951907 -2023710 -2139059 -2298907 -2482022 
2038.036 -2649088 -2748303 -2734474 -2584305 -2307081 -1945936 -1566598 
2041.411 -1234970 -992224 -850545 -790983 -779044 -780334 -772726 -750929 
2045.268 -721358 -691056 -659165 -613837 -537432 -417354 -255057 -72325 
2049.126 94641 205877 233989 169414 25580 -166731 -366738 -537829 -656452 
2053.465 -717951 -738195 -747655 -783277 -871114 -1019992 -1214782 -1420483 
2057.323 -1589245 -1678041 -1660811 -1537379 -1335730 -1102625 -891681 
2060.698 -741039 -665285 -651721 -669983 -680305 -652349 -574693 -458465 
2064.555 -332803 -234293 -198228 -245420 -381437 -594977 -863409 -1156658 
2068.413 -1440661 -1684279 -1857492 -1938151 -1915324 -1793152 -1591820 
2071.788 -1344153 -1093338 -879215 -734325 -676765 -704454 -798987 -926664 
2075.646 -1052320 -1143836 -1182169 -1166010 -1110854 -1042106 -987265 
2079.021 -966173 -983496 -1026702 -1071127 -1089206 -1058798 -971496 -835631 
2082.878 -672199 -508243 -367433 -268932 -223067 -235187 -308202 -443305 
2086.736 -637660 -880108 -1148859 -1408593 -1615490 -1730386 -1724445 
2090.111 -1593735 -1359414 -1066368 -765615 -506191 -322870 -230319 -224425 
2093.968 -286117 -391004 -513439 -632333 -733663 -809108 -856035 -877694 
2097.826 -882224 -881199 -886721 -908512 -948882 -1001976 -1054336 -1089867 
2101.683 -1094693 -1062500 -997777 -914728 -832522 -769287 -738724 -744413 
2105.541 -779904 -830108 -876338 -899386 -885233 -827859 -731083 -608345 
2109.398 -479416 -368261 -295554 -275389 -312639 -402557 -532104 -683844 
2113.255 -841716 -991893 -1125197 -1236192 -1319874 -1370776 -1383063 
2116.631 -1351817 -1276730 -1164358 -1029181 -890392 -768857 -680834 -632962 
2120.488 -620289 -628098 -638123 -632862 -604010 -553979 -495965 -448999 
2124.345 -431455 -455983 -524294 -628197 -752021 -878356 -991860 -1083125 
2128.203 -1149586 -1193404 -1218978 -1229386 -1225818 -1207546 -1173280 
2131.578 -1126090 -1074036 -1032156 -1021182 -1061178 -1167960 -1345111 
2134.953 -1581949 -1850464 -2112318 -2327943 -2464989 -2511013 -2474576 
2138.329 -2386438 -2285921 -2213403 -2196029 -2238983 -2325142 -2424430 
2141.704 -2505050 -2545437 -2543032 -2513484 -2484921 -2483538 -2526199 
2145.079 -2612630 -2728745 -2851576 -2956668 -3026167 -3046567 -3009714 
2148.454 -2907170 -2733157 -2484823 -2173479 -1829381 -1497657 -1236457 
2151.830 -1097733 -1113168 -1287666 -1597795 -2005010 -2462485 -2933828 
2155.205 -3394831 -3832453 -4232001 -4569447 -4803354 -4884910 -4776973 
2158.580 -4479339 -4036852 -3536602 -3075684 -2725748 -2521719 -2453425 
2161.955 -2479156 -2541188 -2589509 -2592276 -2540463 -2447329 -2338225 
2165.331 -2241356 -2177765 -2158643 -2181194 -2234632 -2300324 -2359877 
2168.706 -2397509 -2401464 -2367588 -2295842 -2191612 -2062559 -1918821 
2172.081 -1772627 -1637970 -1534044 -1479826 -1492176 -1580926 -1742827 
2175.456 -1961538 -2207633 -2444562 -2634598 -2745306 -2757028 -2667563 
2178.832 -2492532 -2263408 -2027272 -1835122 -1732003 -1746986 -1880124 
2182.207 -2098535 -2342114 -2543955 -2645564 -2615957 -2463342 -2232654 
2185.582 -1991817 -1806185 -1726623 -1770779 -1925946 -2157819 -2426835 
2188.957 -2698714 -2951139 -3175920 -3370239 -3529766 -3645142 -3699090 
2192.333 -3673596 -3555795 -3343409 -3047290 -2691503 -2312090 -1950983 
2195.708 -1655497 -1471307 -1430622 -1545137 -1796352 -2139125 -2503930 
2199.083 -2816353 -3017875 -3075257 -2992537 -2805654 -2569944 -2337039 
2202.458 -2143708 -2004383 -1913873 -1859175 -1830404 -1827204 -1859537 
2205.833 -1938910 -2068989 -2240170 -2427989 -2597809 -2713862 -2752221 
2209.209 -2704609 -2582757 -2411810 -2226226 -2060910 -1941384 -1881180 
2212.584 -1877386 -1912487 -1958141 -1985781 -1973314 -1913114 -1813874 
2215.959 -1698834 -1598555 -1538831 -1536520 -1595121 -1706458 -1856205 
2219.334 -2027371 -2203546 -2365875 -2494837 -2566617 -2557691 -2453919 
2222.710 -2257113 -1991388 -1699230 -1436368 -1253670 -1182565 -1230642 
2226.085 -1378769 -1590929 -1821660 -2029679 -2182612 -2258201 -2245477 
2229.460 -2143081 -1960944 -1721112 -1461169 -1226181 -1058997 -990141 
2232.835 -1025380 -1143076 -1299459 -1446176 -1541407 -1563065 -1513176 
2236.211 -1410938 -1280959 -1141820 -1002406 -861921 -717951 -573370 -441022 
2240.068 -340318 -292143 -309229 -391798 -526809 -692578 -863541 -1016124 
2243.926 -1132534 -1197072 -1198988 -1131873 -996488 -806363 -588459 -383158 
2247.783 -230684 -164810 -198195 -318169 -487525 -654467 -770510 -799550 
2251.640 -731480 -582370 -390044 -199586 -55131 11829 -10702 -115324 -278402 
2255.980 -468130 -649769 -793762 -881960 -907652 -876074 -799979 -694960 
2259.837 -573502 -443405 -307474 -166897 -25413 107864 218905 290649 308819 
2264.177 267739 173226 42181 -99788 -224855 -311613 -347238 -332041 -276415 
2268.517 -198924 -120160 -57218 -20509 -10238 -17693 -26672 -20343 14380 
2272.856 81881 175115 276724 363732 414771 414837 360283 258224 124966 
2277.196 -20078 -160007 -282375 -381801 -457770 -512744 -548849 -566950 
2281.053 -567414 -549610 -514366 -463099 -398684 -324526 -244659 -162856 
2284.911 -83655 -10205 54276 108096 151747 187778 220198 253814 292937 
2289.250 340154 396828 462366 534814 612085 690498 765474 830768 879140 
2293.590 903742 900190 868316 813207 746156 681306 632425 610990 620978 
2297.929 659536 717048 780344 836013 872964 886477 876716 849791 813904 
2302.269 779050 753890 744397 754022 783663 832162 896903 974437 1059426 
2306.609 1145229 1224104 1287440 1327221 1339319 1323898 1287108 1240519 
2310.466 1199649 1179515 1191177 1239256 1319478 1419958 1524419 1616898 
2314.323 1684982 1722637 1731553 1718812 1694529 1667686 1645368 1630069 
2318.181 1620923 1615236 1610081 1604859 1601135 1602665 1613739 1637319 
2322.038 1673573 1718912 1767349 1811699 1845805 1867268 1877850 1883707 
2325.896 1893956 1919316 1968907 2047499 2153509 2277931 2405254 2515184 
2329.753 2589042 2613108 2583442 2507486 2402122 2289689 2190939 2121477 
2333.611 2087782 2087416 2110756 2145218 2178484 2201828 2211286 2209421 
2337.468 2201695 2196300 2201495 2223076 2263509 2320501 2386330 2450836 
2341.325 2500688 2525082 2518250 2480726 2420014 2347318 2275033 2210820 
2345.183 2157272 2110523 2065010 2015974 1962250 1907035 1856054 1815226 
2349.040 1788608 1777729 1781588 1797059 1821115 1853757 1898316 1962084 
2352.898 2052692 2174155 2322467 2486091 2646577 2785980 2892671 2965358 
2356.755 3012767 3049470 3089646 3140072 3198848 3256197 3301935 3328312 
2360.613 3336792 3336158 3340265 3360633 3402341 3460051 3519004 3558088 
2364.470 3555549 3496257 3374424 3196679 2980972 2754234 2545479 2380400 
2368.327 2276999 2240627 2264008 2329296 2414283 2495322 2554511 2581276 
2372.185 2574310 2538613 2482725 2415250 2342454 2266606 2187242 2102865 
2376.042 2012279 1916720 1819418 1725265 1639381 1564754 1501709 1447152 
2379.900 1395825 1341081 1278202 1204999 1123569 1039365 960224 894213 
2383.757 846703 818983 807730 806369 806037 799232 781639 752263 713995 
2388.097 671350 628742 588660 551800 517364 485287 457192 437224 430292 
2392.436 441238 470891 516037 568654 618688 657446 679746 686715 684956 
2396.776 683562 690631 710709 742339 779581 813373 836345 844612 839034 
2401.115 824029 806236 790966 780311 773042 764644 750205 725379 689071 
2405.455 643442 593405 545695 506915 482301 474506 483130 504725 534416 
2409.795 565701 592442 610061 615071 606544 585508 554686 519023 484756 
2414.134 459878 452283 469033 513881 585740 677390 775896 865959 931534 
2418.474 961287 951292 905502 834951 754620 680808 625523 596125 594035 
2422.813 615237 652236 695775 737526 770519 790568 797240 793024 782369 
2427.153 770287 760893 755516 752894 749774 742804 730092 712568 694116 
2431.493 679414 673142 677456 692124 715024 743833 776925 814601 857294 
2435.832 904406 953450 998514 1032556 1049429 1046240 1024718 991142 954546 
2440.172 923266 903112 896205 900754 912740 927384 940765 949399 950561 
2444.511 942094 922436 891823 852679 810452 772544 747451 742605 761723 
2448.851 804311 865826 938375 1011998 1076931 1124200 1146857 1140943 
2452.708 1106129 1046307 968858 884053 802950 734008 682235 648154 627946 
2457.048 615967 607174 598879 591016 585740 586205 594500 611355 635777 
2461.388 666007 700488 737991 777323 817456 855966 890262 917522 935718 
2465.727 944684 946211 942824 937445 931966 926919 921573 914866 906033 
2470.067 895442 884917 876650 873197 876351 886278 901485 918452 932165 
2474.406 936980 927782 902049 860946 809954 757242 712435 682766 670587 
2478.746 673009 683065 692423 695244 691295 686284 690067 712070 757906 
2483.086 825689 906332 985230 1047070 1080684 1080850 1050525 999311 940666 
2487.425 887639 851716 839864 853775 890229 942426 1001071 1056038 1099386 
2491.765 1126393 1136492 1133369 1122871 1111610 1103638 1100449 1100116 
2495.622 1099651 1096629 1091347 1087394 1090816 1107391 1140777 1190147 
2499.480 1250188 1311435 1363549 1398085 1410617 1401409 1375848 1342011 
2503.337 1307846 1279697 1260589 1250321 1246566 1246633 1248926 1254209 
2507.195 1263946 1280196 1303160 1329947 1354741 1369765 1368070 1345368 
2511.052 1301797 1241815 1173501 1105697 1045742 998282 964143 941861 927583 
2515.392 917920 909819 902016 894711 889465 888934 895442 910549 933128 
2519.731 959793 983836 997584 995326 975201 941164 903244 874823 868715 
2524.071 894313 953683 1042055 1148983 1261121 1367505 1458821 1530338 
2527.928 1579718 1606556 1611478 1596512 1565685 1525516 1484021 1449578 
2531.786 1427238 1417897 1416700 1416135 1407559 1386218 1352481 1312631 
2535.643 1275909 1251019 1242778 1250089 1266438 1281990 1288770 1282821 
2539.500 1266106 1246035 1233076 1236166 1260025 1302761 1355905 1406994 
2543.358 1442730 1453967 1438707 1402839 1358198 1320342 1302528 1312033 
2547.215 1348260 1403437 1465869 1522690 1565485 1590925 1600370 1597743 
2551.073 1587500 1572402 1553381 1531302 1508259 1488177 1476607 1478602 
2554.930 1495924 1526713 1565153 1603629 1635756 1658572 1673207 1683319 
2558.788 1692666 1702945 1712990 1719577 1719377 1712159 1701148 1692965 
2562.645 1694495 1710662 1741899 1783817 1828402 1867001 1892958 1903641 
2566.502 1900047 1886203 1867434 1847901 1830964 1818420 1811632 1812231 
2570.360 1822513 1844873 1881510 1933094 1998365 2073067 2151178 2225041 
2574.217 2286358 2328163 2345186 2335192 2298783 2240195 2165896 2083821 
2578.075 2003491 1934059 1883407 1857684 1859315 1886868 1934392 1993305 
2581.932 2053658 2107027 2149547 2182114 2210754 2242826 2284526 2337890 
2585.790 2398591 2457533 2504153 2530215 2532314 2513485 2481892 2447603 
2589.647 2418815 2400256 2391994 2391561 2395825 2403255 2414650 2432409 
2593.504 2458933 2494522 2536847 2581542 2623542 2658778 2685916 2706287 
2597.362 2723258 2740463 2760336 2783779 2809323 2834236 2855414 2870390 
2601.219 2878562 2880530 2878795 2877094 2878695 2887034 2903511 2927462 
2605.077 2957152 2989279 3020841 3049570 3074496 3096387 3116611 3136000 
2608.934 3154123 3169276 3178521 3178655 3168074 3147581 3120782 3093784 
2612.792 3073895 3067522 3078901 3107934 3149851 3196612 3238004 3264443 
2616.649 3269885 3252959 3218209 3173348 3128858 3093217 3071893 3065386 
2620.506 3070759 3082305 3094285 3102761 3106198 3105498 3102894 3101626 
2624.364 3104296 3113106 3129125 3152721 3182927 3217007 3250956 3279900 
2628.221 3298763 3304940 3298463 3282972 3264276 3249087 3242477 3246750 
2632.079 3260838 3281369 3303905 3324739 3341667 3354556 3364674 3373857 
2635.936 3384141 3397365 3414998 3438041 3466798 3500599 3537510 3574525 
2639.793 3609003 3638839 3664234 3686556 3707675 3728763 3748280 3762251 
2643.651 3765559 3753561 3724752 3682111 3632892 3586251 3551240 3533669 
2647.508 3534537 3551073 3577398 3607767 3637236 3663131 3684785 3702730 
2651.366 3717835 3731303 3744571 3759410 3777458 3800019 3827028 3856779 
2655.223 3886165 3912076 3932103 3946313 3957113 3968716 3984599 4007171 
2659.081 4036266 4069343 4103158 4134702 4162500 4186487 4207263 4224995 
2662.938 4238613 4245974 4245205 4235568 4219040 4200003 4184847 4178926 
2666.795 4186052 4206594 4237676 4274148 4310589 4342482 4367382 4384686 
2670.653 4395631 4401589 4403932 4403530 4400484 4394828 4387096 4377791 
2674.510 4368085 4359183 4352087 4346933 4343051 4338901 4332643 4322469 
2678.368 4307979 4289976 4270869 4253804 4241992 4237308 4239684 4247011 
2682.225 4256313 4264812 4270802 4275051 4279803 4288035 4302089 4322503 
2686.083 4347770 4374946 4400585 4421973 4437472 4446510 4449121 4444903 
2689.940 4433220 4412969 4383983 4346966 4304733 4261198 4220980 4187591 
2693.797 4162969 4147112 4138147 4133130 4129349 4124399 4116939 4106503 
2697.655 4093191 4077838 4061550 4046634 4035364 4030882 4035598 4050815 
2701.512 4076033 4108878 4145306 4180699 4210675 4232423 4245037 4249587 
2705.370 4248818 4245940 4243833 4244167 4247513 4253536 4261533 4271973 
2709.227 4285993 4306072 4335086 4374779 4425287 4484004 4546578 4607086 
2713.084 4660301 4702435 4732280 4751139 4761356 4766247 4768860 4771574 
2716.942 4776833 4786917 4804572 4832112 4871013 4920742 4978821 5041367 
2720.799 5103586 5161455 5212961 5257463 5295731 5328266 5354598 5373351 
2724.657 5382274 5379892 5366340 5343965 5316962 5289627 5265981 5247771 
2728.514 5234658 5225100 5216884 5208534 5199614 5190024 5179964 5168597 
2732.372 5154012 5133525 5103854 5063089 5010193 4946278 4873694 4796331 
2736.229 4718580 4645464 4581837 4531177 4496190 4476739 4470880 4473492 
2740.086 4478480 4479953 4472521 4454142 4425421 4390175 4353359 4320495 
2743.944 4295698 4280606 4274516 4274884 4277829 4280003 4279334 4276022 
2747.801 4272508 4272207 4279334 4296233 4323272 4357910 4394794 4428467 
2751.659 4453540 4466863 4468504 4461273 4449623 4438208 4430409 4427530 
2755.516 4428668 4431781 4434526 4435196 4433790 4431313 4430208 4433220 
2759.374 4442058 4457892 4480221 4507405 4537137 4567104 4595265 4620782 
2763.231 4644158 4666999 4691282 4718848 4750670 4786012 4823267 4859789 
2767.088 4893028 4921211 4943799 4961594 4976575 4991122 5007780 5028361 
2770.946 5054574 5086790 5124439 5166552 5211451 5257094 5302204 5345877 
2774.803 5388212 5429612 5470680 5511819 5552828 5593337 5633280 5673663 
2778.661 5716332 5763639 5817633 5878788 5945595 6014663 6081827 6143994 
2782.518 6200120 6252656 6306309 6367196 6440568 6529257 6633373 6750066 
2786.375 6875038 7003312 7130479 7253134 7368612 7474918 7570798 7656447 
2790.233 7732871 7802797 7870305 7939175 8012610 8092472 8178326 8268653 
2794.090 8361432 8455110 8548333 8640428 8731022 8819368 8904587 8986033 
2797.948 9064282 9140988 9219298 9302937 9395158 9498169 9612178 9736486 
2801.805 9869811 10010975 10160394 10318449 10486302 10664136 10851114 
2805.180 11044969 11242482 11440356 11636007 11827250 12013775 12195814 
2808.556 12375066 12553675 12734542 12920809 13115249 13319924 13535941 
2811.931 13762838 13999402 14243969 14494464 14749319 15007171 15266995 
2815.306 15528314 15791234 16057407 16330108 16614374 16916708 17242970 
2818.681 17597252 17980900 18392334 18827132 19280448 19748106 20227726 
2822.057 20719136 21223520 21742392 22277650 22831100 23405500 24005698 
2825.432 24638182 25311730 26034874 26815188 27657852 28565632 29539718 
2828.807 30581364 31693198 32880034 34148116 35504508 36955984 38508660 
2832.182 40168264 41941944 43838308 45868980 48047484 50387048 52900260 
2835.558 55595804 58478364 61547948 64800636 68229872 71825544 75576448 
2838.933 79469080 83488184 87618768 91845176 96153064 100531552 104971672 
2842.308 109467416 114015744 118614216 123260456 127950568 132677136 
2845.201 137428560 142186688 146924592 151608800 156194352 160627424 
2848.094 164849920 168795600 172398224 175595200 178325056 180534992 
2850.987 182180192 183225088 183649056 183448064 182639264 181259056 
2853.880 179364768 177026256 174314768 171303120 168054976 164624528 
2856.773 161062848 157416560 153733328 150064416 146457072 142958320 
2859.667 139609312 136441504 133481008 130747048 128252464 126005504 
2862.560 124008888 122258392 120743488 119448032 118351928 117432584 
2865.453 116669208 116041328 115528552 115110624 114762512 114455312 
2868.346 114156264 113826832 113428552 112924272 112279376 111468032 
2871.239 110473560 109290776 107928464 106408456 104765264 103038696 
2874.132 101275008 99518816 97809624 96184160 94672080 93298544 92085216 
2877.507 91048168 90197960 89539416 89070488 88784384 88671592 88724224 
2880.882 88936560 89307000 89837056 90528216 91380016 92387080 93538904 
2884.258 94821960 96220752 97720560 99310072 100980032 102722848 104531560 
2887.633 106397784 108312160 110265464 112248272 114253880 116277672 
2890.526 118316600 120369160 122433176 124505344 126581672 128656072 
2893.419 130721632 132772176 134802272 136808512 138791008 140753312 
2896.312 142700960 144641120 146579888 148520496 150462896 152404048 
2899.205 154340224 156268560 158189584 160108016 162032304 163973056 
2902.098 165941520 167948480 170002496 172110576 174277984 176507072 
2904.991 178798400 181150528 183560592 186026384 188547872 191128432 
2907.884 193775184 196496736 199300864 202192192 205170624 208232480 
2910.777 211372496 214586656 217873088 221231952 224662752 228160736 
2913.670 231713984 235303312 238900080 242472080 245983104 249392688 
2916.563 252660544 255740640 258582944 261137312 263350960 265174784 
2919.457 266566368 267487888 267909584 267808800 267170928 265992560 
2922.350 264282560 262063888 259369488 256240640 252722560 248859040 
2925.243 244695696 240278448 235653760 230872368 225982784 221028944 
2928.136 216048800 211069584 206110736 201186352 196307424 191484416 
2931.029 186727968 182047200 177450128 172943520 168533968 164230064 
2933.922 160042480 155984192 152068416 148304880 144698816 141251184 
2936.815 137959088 134820080 131833864 129004080 126338320 123846512 
2939.708 121537600 119420464 117502328 115788760 114285992 112999312 
2942.601 111933792 111092408 110474240 110072840 109876368 109868944 
2945.494 110029848 110337312 110769912 111306208 111927232 112615272 
2948.387 113352408 114121224 114901064 115666960 116391368 117041096 
2951.280 117581632 117981432 118213136 118258560 118109496 117766240 
2954.173 117234928 116524112 115642272 114596528 113393664 112042320 
2957.066 110552784 108937944 107211032 105383168 103462288 101453432 
2959.959 99359296 97183624 94931616 92610608 90229480 87796128 85318336 
2963.335 82802840 80257144 77690536 75114864 72541648 69982072 67443768 
2966.710 64931632 62448868 59999844 57592516 55238940 52953220 50749216 
2970.085 48636384 46617584 44690084 42847272 41082348 39390960 37772196 
2973.460 36227624 34759264 33367336 32048802 30798174 29609732 28478378 
2976.836 27401662 26378624 25409278 24492392 23624214 22799006 22009730 
2980.211 21250834 20518586 19812748 19135512 18490724 17882004 17312030 
2983.586 16781994 16291095 15836800 15414697 15019210 14643137 14279134 
2986.961 13921388 13566433 13215423 12873705 12549651 12251739 11986049 
2990.337 11753098 11547766 11359059 11174345 10981791 10774071 10549782 
2993.712 10314004 10076352 9847237 9635689 9447270 9282491 9138010 9007785 
2997.569 8885512 8765134 8643639 8520084 8396056 8275307 8161849 8059797 
3001.427 7970727 7894194 7826513 7762284 7694590 7617970 7529092 7428570 
3005.284 7319749 7208528 7101210 7001864 6912102 6831009 6755720 6683304 
3009.142 6612144 6542140 6474535 6410875 6351360 6294777 6238337 6179753 
3012.999 6117480 6052898 5988829 5929472 5877411 5833383 5794866 5757729 
3016.856 5717305 5670775 5617974 5561722 5506114 5454709 5408878 5367144 
3020.714 5325482 5278458 5222149 5154380 5076263 4991457 4905293 4823100 
3024.571 4748962 4685520 4632805 4588836 4550060 4512394 4471918 4425924 
3028.429 4374712 4320729 4268526 4223724 4190970 4171934 4164809 4164173 
3032.286 4163035 4154538 4134568 4103092 4063356 4021819 3984566 3957080 
3036.144 3941833 3937954 3942434 3950392 3956946 3957414 3948654 3928692 
3040.001 3897666 3856980 3809847 3760680 3714125 3674426 3644754 3625775 
3043.858 3615886 3612010 3610072 3606029 3597911 3585015 3569146 3552910 
3047.716 3539214 3529961 3524650 3520608 3513259 3497593 3469369 3427154 
3051.573 3372888 3311617 3250088 3195611 3153289 3125287 3109803 3102427 
3055.431 3097288 3088044 3070225 3041862 3002991 2956351 2906147 2858283 
3059.288 2818361 2792483 2784679 2796918 2826766 2868789 2915353 2957619 
3063.146 2989079 3006528 3010799 3005327 2994750 2981839 2966192 2944975 
3067.003 2914219 2871357 2817161 2756702 2697419 2647744 2612842 2594009 
3070.860 2587709 2587509 2585842 2577243 2559011 2532048 2498688 2461199 
3074.718 2420914 2377868 2331128 2280929 2229170 2180182 2139724 2112754 
3078.575 2102598 2108625 2126605 2149147 2168061 2176186 2168893 2145151 
3082.433 2107693 2061847 2014875 1973667 1944244 1930365 1932761 1949203 
3086.290 1975131 2003990 2028690 2043304 2043437 2027225 1995902 1952498 
3090.147 1902210 1850596 1803913 1766983 1743595 1735012 1740734 1757069 
3094.005 1779193 1801185 1817821 1825873 1825041 1818121 1809536 1804279 
3097.862 1806043 1815459 1830565 1847202 1860779 1867867 1867234 1859880 
3101.720 1848733 1836088 1824076 1812664 1801551 1790239 1778827 1769445 
3105.577 1763822 1763889 1769245 1777563 1784915 1787643 1783585 1773437 
3109.435 1760695 1749983 1745092 1747255 1754441 1763190 1769145 1769711 
3113.292 1765419 1759497 1755339 1755938 1761094 1767881 1771907 1768181 
3117.149 1755073 1732950 1705073 1675170 1646299 1619293 1593386 1567281 
3121.007 1540679 1515109 1493863 1481195 1479566 1489474 1507894 1529539 
3124.864 1548626 1560431 1562559 1555044 1540080 1520861 1500280 1481195 
3128.722 1464905 1452936 1446054 1445223 1451074 1463940 1483423 1508392 
3132.579 1537254 1568046 1598108 1625013 1646432 1660402 1665856 1662630 
3136.437 1651920 1635556 1615535 1593053 1568578 1541576 1511551 1478336 
3140.294 1443794 1411149 1384290 1367571 1363283 1372191 1392501 1420922 
3144.151 1454366 1490172 1526979 1564188 1601667 1638317 1672409 1701248 
3148.009 1722371 1733715 1734414 1724966 1706604 1681390 1651222 1617896 
3151.866 1583310 1549424 1518135 1491901 1472052 1459918 1455297 1457291 
3155.724 1463841 1472618 1481295 1487845 1491436 1492001 1490405 1488543 
3159.581 1489208 1494594 1506564 1525383 1550089 1577922 1605092 1627774 
3163.438 1642341 1646266 1638250 1618861 1589429 1552916 1512582 1472651 
3167.296 1437112 1409952 1394296 1392002 1403636 1428402 1464073 1507428 
3171.153 1554645 1600935 1641743 1672775 1690703 1693764 1682088 1657708 
3175.011 1623484 1582744 1538251 1491735 1444492 1398118 1355306 1319611 
3178.868 1294951 1284715 1289833 1308643 1336627 1368336 1399282 1426972 
3182.726 1451706 1475477 1500546 1527145 1552882 1573632 1585105 1585937 
3186.583 1578188 1567647 1560863 1562792 1573566 1587932 1596978 1592222 
3190.440 1568412 1527145 1476807 1430297 1400246 1394994 1415836 1456726 
3194.298 1506264 1552217 1585105 1600270 1598507 1584507 1563823 1541044 
3198.155 1517303 1491801 1462378 1427405 1387548 1345867 1307148 1276075 
3202.013 1255605 1245669 1243343 1244008 1242080 1234006 1218754 1198320 
3205.870 1176159 1155960 1139914 1127854 1116859 1102807 1081913 1052385 
3209.728 1014920 972943 931269 894014 864166 842985 830569 826818 832262 
3214.067 848795 878110 921008 975998 1038302 1100548 1154631 1192539 1209318 
3218.407 1203736 1178917 1140678 1096695 1054145 1018042 991474 974437 
3222.264 965538 961785 960590 960390 960424 961885 966335 975500 990179 
3226.604 1008378 1025914 1036907 1034350 1013027 971349 911844 841292 768992 
3230.943 705200 657777 631463 627382 643409 675764 720500 773407 831100 
3235.283 889963 946610 996522 1035911 1061784 1073144 1070985 1058596 
3239.140 1040228 1019935 1000939 984965 971748 959892 947672 932962 914965 
3243.480 893649 870873 850189 835250 830303 837839 857261 884352 912309 
3247.820 932597 937810 924362 893549 852679 811879 782535 772876 785854 
3252.159 818651 863104 909487 948536 973973 984134 980847 968061 949930 
3256.499 930472 911711 895176 881597 871404 864332 859319 853841 845209 
3260.838 830204 807497 777589 743335 709813 681969 663684 656218 657811 
3265.178 664713 672478 676991 676295 670952 663054 656284 654127 659470 
3269.518 673407 695609 724881 758736 795016 831100 864963 894545 917455 
3273.857 931435 934423 925624 905967 878642 849724 826917 817722 827581 
3278.197 858290 906764 965571 1024585 1074473 1107524 1120214 1113039 
3282.054 1089719 1055075 1014289 971017 927616 886012 847566 814336 788277 
3286.394 771349 763880 765274 773473 785456 797672 807829 813705 814502 
3290.733 810352 802651 793290 784925 779514 778817 782535 788809 794352 
3295.073 795945 791132 780079 765407 751965 745028 748347 762851 786286 
3299.413 813439 838636 856995 865627 864664 855999 842520 826419 808825 
3303.752 789705 768494 745393 721728 700222 684492 677954 682467 697866 
3308.092 721263 748513 774403 795613 811215 823299 835615 852779 877612 
3312.431 909321 942691 969988 982540 973773 941529 889797 827083 763449 
3316.771 709183 670653 650045 645566 652601 666970 685288 705964 728266 
3321.111 751765 775066 795680 810751 817954 815896 804410 785058 759101 
3325.450 728167 693817 657910 623201 593305 572237 563279 568355 586769 
3329.790 616432 653762 694879 737394 779514 820344 858987 893948 923001 
3334.129 943621 954181 954380 945912 932464 918252 907561 903510 906863 
3338.469 916493 928579 938441 940865 932066 911147 880335 845674 814933 
3342.809 796045 793655 807497 832129 858788 877446 881298 868648 843549 
3347.148 813672 787946 773008 770984 779481 793290 806867 815664 817921 
3351.488 814004 805140 792261 775332 753989 728831 701185 674735 653895 
3355.827 642646 643177 655521 676626 702545 728598 750371 764976 770220 
3360.167 765573 751500 730590 706893 685155 670819 667766 677456 698364 
3364.507 726341 756512 783863 805838 821838 833557 843085 852679 862905 
3368.846 873661 883423 890495 893118 889299 877446 855700 822535 777556 
3373.186 722392 660797 598581 542875 500612 476994 474871 494342 532094 
3377.525 582422 638597 692888 738323 769988 785124 784460 771581 752031 
3381.865 732017 716750 709581 711606 721927 738290 758503 780477 802518 
3386.205 822668 839101 849592 852646 848297 837972 824627 812012 803116 
3390.544 799431 800460 804543 809489 814037 818120 822668 828013 833723 
3394.884 837375 835549 824593 802983 771249 732913 693120 656915 628012 
3399.223 607805 595528 588925 585973 585442 587731 594798 608933 632790 
3403.563 667268 711141 760495 809456 850687 876650 882028 864598 826585 
3407.903 773539 713929 655687 605416 566331 538928 521345 511658 508275 
3412.242 511061 520018 534582 552364 569715 582323 586537 581759 569914 
3416.582 556245 546724 546094 556876 578275 606477 636042 661892 679779 
3420.921 688142 687843 681372 672213 663784 658972 659569 665974 677323 
3425.261 691925 707822 723321 737892 751799 765972 780543 794983 807033 
3429.601 813937 812776 802618 784261 760926 736398 713497 693717 675332 
3433.940 655421 630733 599676 563412 525956 492982 470095 461205 467275 
3438.280 485851 512521 541250 565966 582555 588428 583119 568554 548814 
3442.619 528643 512886 505787 509403 523601 546359 573763 601036 623300 
3446.959 636872 639659 632027 615270 593073 568488 545662 528245 518658 
3451.299 518691 527914 544567 565070 585674 603027 614673 620181 620513 
3455.638 617494 613910 612019 613877 620480 631662 646130 661925 675963 
3459.978 685454 688308 684226 675100 664315 656417 654923 660864 672611 
3464.317 685520 693651 690764 672644 637900 588428 528146 462499 397624 
3468.657 337933 287698 249637 225999 218408 227259 252654 292340 343702 
3472.997 402267 463660 523402 577545 623002 657777 680907 692158 692423 
3477.336 683595 667666 647955 628078 610891 599112 593836 594997 600605 
3481.676 608634 616332 621873 623533 620845 613611 601865 585973 567028 
3486.015 546691 527814 514412 509867 516900 536307 565833 601268 637204 
3490.355 668098 689669 699857 698131 685255 663253 633819 598780 560658 
3494.695 522639 489101 465384 456595 465915 493513 536207 587930 640721 
3499.034 686383 718940 734307 731519 712800 682534 645898 608667 575621 
3503.374 549179 530169 517961 511625 510531 515142 525923 543307 566232 
3507.713 591248 612649 624030 619650 597652 560857 517165 477226 450259 
3512.053 443261 457722 490495 534349 580498 620812 649282 663319 663220 
3516.393 651439 631463 607174 582257 560028 542975 532757 530004 534283 
3520.732 544269 558037 573497 588129 599211 604188 600804 588328 567857 
3525.072 543307 520881 507711 510033 531331 569815 618323 666273 703275 
3529.411 722126 721230 704835 680476 656682 639294 630932 630667 634914 
3533.751 639626 641683 639526 633056 623665 613180 603392 596922 595959 
3538.091 602927 618788 642712 671151 698695 718476 724881 715389 691560 
3542.430 658541 623931 595263 576716 568620 566397 563412 552928 532060 
3546.770 502138 468204 436329 411587 396099 389366 389101 391887 394739 
3551.109 396165 395634 394043 392749 393048 395502 399614 404191 408303 
3555.449 411587 414671 419049 426777 439546 458154 482036 508374 533819 
3559.789 554653 568488 574692 574858 572137 569748 570677 575986 585740 
3564.128 598382 611455 622238 627879 626851 619518 608302 597353 589689 
3568.468 586205 584811 582190 573763 556710 529639 494939 456694 421901 
3572.807 397624 388637 396795 418850 449297 480543 506085 521975 527648 
3577.147 524497 515473 503398 490594 478785 469663 464986 466910 477425 
3581.487 497129 526122 562383 603757 646428 687213 722160 746720 756080 
3585.826 745691 713995 664912 609696 564340 541184 544733 569549 605416 
3590.166 640356 665609 676593 673640 661129 645864 635146 632890 639128 
3594.505 649780 659603 664912 665144 662921 661461 662655 665377 665742 
3598.845 658872 641451 613711 580332 550141 532790 535079 559364 602728 
3603.185 658441 717115 769722 807630 824295 815962 782800 729594 665244 
3607.524 602463 553193 524497 516137 522208 534051 544899 552496 558601 
3611.864 568355 586636 615038 649614 681737 700687 699127 674270 628709 
3616.203 568289 501441 438385 389366 364130 369535 407673 475070 563710 
3620.543 663651 765009 859419 941396 1006551 1052750 1079854 1089022 1082843 
3624.883 1064807 1038302 1005787 968792 928446 885747 844313 809954 788908 
3629.222 783929 791033 803149 814634 823365 830071 837873 849492 866789 
3633.562 889332 913205 932032 939670 931999 908789 874126 835648 803614 
3637.901 787282 792891 821108 866623 919514 968194 1003031 1018109 1013260 
3642.241 994064 969456 947805 935320 933493 939836 948602 952454 944252 
3646.581 919082 875687 817556 752529 689005 634582 593902 570412 565568 
3650.920 578673 606378 642911 681505 715953 740182 750139 743667 722790 
3655.260 693917 668197 657147 666206 692788 728266 762918 789406 804775 
3659.599 810253 810419 811016 816859 830635 851119 874359 893948 903908 
3663.939 899526 878907 842985 795281 740812 684591 631363 584347 545098 
3668.279 513715 489433 472251 464290 469398 490992 529705 582887 646163 
3672.618 713862 779879 835648 870441 874159 843915 790369 735369 696671 
3676.958 678385 675764 680775 686947 690531 690498 688076 685753 686118 
3681.297 691328 703441 723554 752130 788908 832030 878077 922403 960258 
3685.637 986924 999112 995226 976496 947307 915862 892022 883456 892055 
3689.977 913172 939238 961387 973441 973375 962615 945149 927151 915131 
3694.316 914799 929841 960689 1004326 1053580 1099718 1134964 1154564 
3698.174 1157853 1147023 1126160 1099020 1068727 1036342 1002134 966102 
3702.031 929077 892985 860083 831764 808062 786983 765673 740746 709913 
3706.371 672611 630998 590949 560359 548781 565767 616631 700454 806501 
3710.710 915862 1004592 1053813 1056503 1019537 957800 887307 820444 764113 
3715.050 721098 692124 677224 676394 690233 718044 757707 805207 855302 
3719.389 902182 941928 971814 991308 1001005 1001835 994263 978655 955841 
3723.729 927317 896205 867353 844944 832295 829673 833756 839499 842122 
3728.069 839333 831432 820577 809390 800294 794452 791796 791298 792095 
3732.408 794883 800858 811547 826818 843151 854073 852513 834885 804377 
3736.748 769523 739319 719538 713033 719438 736597 761823 792128 823830 
3741.087 853044 875521 885381 875853 840894 779381 702479 633719 597353 
3745.427 601467 638597 694248 756645 817456 872300 919448 959361 993832 
3749.767 1024884 1052019 1072247 1081349 1075868 1057035 1029202 998714 
3753.624 970652 948668 934323 927749 929044 938209 955044 978954 1008345 
3757.964 1040428 1071417 1097326 1115131 1124134 1126227 1125695 1127589 
3761.821 1135296 1151475 1176126 1207158 1240652 1271090 1292392 1300302 
3765.678 1294619 1278634 1257765 1236066 1215830 1196659 1176923 1154465 
3769.536 1129349 1103837 1081913 1066999 1060190 1059991 1063346 1067365 
3773.393 1070122 1071749 1074307 1081216 1094968 1116726 1144565 1174697 
3777.251 1201311 1219087 1224071 1215000 1193569 1163302 1127622 1088291 
3781.108 1045808 1000606 953716 909586 873894 853144 851882 869744 900356 
3785.448 932829 956339 963014 950860 923432 888303 855468 833291 828146 
3789.787 842321 874425 919946 973142 1028172 1079987 1125596 1162770 1190180 
3794.127 1206461 1209484 1197390 1169714 1129150 1081781 1035412 997020 
3797.984 970187 954778 948270 947506 949565 952985 959029 970320 988352 
3802.324 1011931 1037472 1061519 1081913 1098522 1112474 1125463 1138585 
3806.181 1150544 1156923 1151641 1131010 1095732 1051687 1007083 971150 
3810.039 950927 951026 971648 1008544 1052916 1095001 1126193 1140179 
3813.896 1134366 1109152 1069557 1023788 981212 948502 926421 910781 895807 
3818.236 878077 856696 835084 820676 824793 856862 917422 994164 1069358 
3822.575 1129615 1169913 1191808 1199915 1199550 1195031 1189682 1185263 
3826.433 1182073 1179914 1178419 1178252 1180213 1184665 1190645 1195762 
3830.290 1196559 1189781 1174000 1150810 1125230 1102774 1087461 1080585 
3834.148 1080219 1083309 1086597 1088989 1090782 1094038 1099485 1105465 
3838.005 1107923 1102342 1088125 1069989 1056603 1057367 1077927 1117855 
3841.863 1170777 1226098 1272021 1298906 1303858 1289866 1264112 1234139 
3845.720 1205032 1178153 1152604 1127190 1101777 1079090 1063877 1060821 
3849.577 1073510 1101977 1142903 1189050 1229753 1253378 1249823 1217292 
3853.435 1166956 1118055 1083475 1066003 1061618 1065471 1073975 1084803 
3857.292 1096629 1108321 1118221 1125728 1130711 1133834 1136625 1141076 
3861.150 1148385 1158717 1170511 1181110 1187688 1188353 1182605 1171608 
3865.007 1156890 1139681 1119782 1095898 1065903 1027906 981411 928247 
3868.865 874624 830038 804775 803448 822203 853044 888336 923598 956439 
3873.204 986359 1013625 1038833 1062482 1085833 1109883 1135728 1164199 
3877.062 1195463 1229420 1265076 1301066 1334965 1363184 1382529 1389808 
3880.919 1383792 1364879 1335065 1296380 1251119 1201809 1152039 1106793 
3884.776 1072779 1055507 1056204 1070553 1090251 1107923 1118785 1121377 
3888.634 1117091 1108687 1099087 1092510 1091447 1096861 1107126 1119383 
3892.491 1130811 1139714 1146691 1152272 1157720 1163102 1168584 1173169 
3896.349 1175428 1174498 1168784 1157787 1141608 1121676 1100216 1080884 
3900.206 1067265 1062482 1067830 1082478 1103106 1123935 1138817 1142239 
3904.063 1131941 1110746 1084803 1061286 1046041 1041623 1047834 1062482 
3907.921 1082511 1105498 1129914 1155827 1183834 1214701 1247929 1281259 
3911.778 1310704 1331708 1340316 1334600 1315024 1284715 1248926 1213770 
3915.636 1185695 1170113 1169481 1182505 1205530 1232777 1258994 1280030 
3919.493 1294120 1300700 1300867 1296114 1288604 1279531 1269994 1260955 
3923.351 1252382 1244606 1237528 1231481 1226563 1222775 1220615 1220648 
3927.208 1223307 1229155 1238126 1249723 1262849 1275045 1283951 1287175 
3931.065 1283286 1272519 1256569 1237993 1219951 1204600 1193436 1186127 
3934.923 1182173 1180611 1180479 1181176 1182372 1183934 1185861 1188153 
3938.780 1190977 1193802 1196227 1197888 1198320 1197589 1196294 1196194 
3942.638 1199450 1208753 1225068 1248859 1278036 1310072 1340748 1366873 
3946.495 1385088 1393332 1391670 1381698 1366508 1349656 1334500 1323034 
3950.353 1316021 1313362 1314260 1317783 1322369 1326856 1329980 1330877 
3954.210 1329182 1325659 1321405 1318381 1317683 1320043 1324795 1330179 
3958.067 1334400 1336095 1335996 1336162 1340449 1352481 1375216 1408357 
3961.925 1448548 1489374 1523089 1542774 1544702 1528343 1497520 1458455 
3965.782 1419160 1386318 1365643 1358896 1365078 1379936 1398019 1413410 
3969.640 1420989 1418030 1403636 1379504 1348891 1316287 1286178 1262982 
3973.497 1249889 1249125 1261022 1284582 1316919 1354642 1392966 1427172 
3977.354 1453402 1468595 1472019 1464439 1449046 1429665 1410817 1396357 
3981.212 1388180 1386418 1389143 1393332 1395725 1393797 1386850 1376213 
3985.069 1364945 1357134 1357899 1370895 1398318 1440104 1493530 1553348 
3988.927 1612442 1663561 1700117 1718147 1716849 1698554 1667952 1630601 
3992.784 1591989 1556008 1525450 1500911 1481661 1465835 1451440 1436547 
3996.642 1420058 1402307 1385653 1374119 1372225 1383958 1411216 1451673 
4000.499 1499282 
##END=
