##TITLE=staro_2 Sep 07 10:21:53 2026 (GMT+02:00)
##JCAMP-DX=5.01  $$ Nicolet v. 970
##DATATYPE=INFRARED SPECTRUM
##ORIGIN=Vojna akademija
##OWNER=Nicolet
##LONGDATE=2026/09/07
##TIME=10:22:22
##SPECTROMETER/DATA SYSTEM=Nicolet iS20
##DATA PROCESSING=
Ratio against background
%Transmittance->Absorbance
Truncated
ElementMultiply or ElementDivide
##COMMENTS=
Number of sample scans: 8
Collection length: 11,90 sec
Sample gain: 8,0
Background collected on: Mon Sep 07 10:04:03 2026 (GMT+02:00);
Number of background scans: 8
Background gain: 8,0
Sample spacing:  1,000
Number of scan points: 12415
Resolution points: 8286
Number of FFT points: 65536
Apodization: N-B strong;
Phase correction: Mertz;
Laser frequency: 15798,00 cm-1
Number of rejected sample scans: 0
Number of rejected background scans: 0
Bench serial number: BER2010005;
##RESOLUTION= 4,000
##XUNITS=1/CM
##YUNITS=ABSORBANCE
##FIRSTX=400.156891
##LASTX=4000.123047
##FIRSTY=0.008043
##MAXX=4000.123047
##MINX=400.156891
##MAXY=0.271106
##MINY=-0.006782
##XFACTOR=1.000000
##YFACTOR=1.000000E-009
##NPOINTS=7468
##DELTAX=0.482117
##ZPD=6100
##XYDATA=(X++(Y..Y))
400.157 8043156 3927020 928612 -806892 -1298666 -750367 504029 2045668 
404.014 3466864 4451598 4797537 4480421 3631890 2485858 1265807 131064 
407.871 -855572 -1705336 -2447296 -3075980 -3525921 -3680561 -3427607 
411.246 -2718471 -1611000 -285521 975434 1838850 2052359 1506830 280835 
415.103 -1415199 -3282446 -5000484 -6270327 -6781501 -6275292 -4644196 
418.477 -2128772 652933 2953549 4310188 4724911 4479250 3927723 3356059 
422.334 2992048 2975734 3345607 4026468 4834860 5533967 5904113 5829890 
426.191 5310757 4445405 3378632 2266573 1235302 355010 -347304 -871015 
430.048 -1216071 -1363807 -1283503 -953973 -392096 341050 1151010 1939817 
433.905 2648911 3271821 3856646 4477074 5196496 6020946 6884127 7661910 
437.762 8224787 8478017 8388118 7993608 7397495 6751412 6208859 5911905 
441.619 5944151 6308426 6916546 7608090 8199564 8517718 8457339 7988209 
445.476 7153754 6050747 4819582 3614750 2561011 1738639 1159814 783066 
449.333 538563 359951 203523 54608 -70934 -136755 -98363 75883 392849 826121 
454.154 1322436 1802882 2182081 2387929 2378467 2172956 1864439 1611478 
458.011 1562060 1783618 2225141 2758802 3241709 3580872 3760814 3835719 
461.868 3901778 4045898 4304064 4630059 4913939 5019512 4849703 4374846 
465.725 3648262 2784312 1932994 1224669 731552 471189 425682 581958 951790 
470.064 1567081 2455667 3598980 4907873 6212724 7302058 8007379 8249337 
473.921 8066311 7568438 6893822 6157201 5437429 4790937 4253703 3848756 
477.778 3584046 3444888 3394393 3386512 3389184 3398467 3448094 3595104 
481.635 3897966 4376319 4989446 5631568 6168426 6476519 6488459 6220219 
485.492 5762363 5236636 4739314 4312831 3937319 3554480 3096687 2524749 
489.348 1843509 1103505 381076 -236115 -668494 -860532 -783542 -445325 
493.205 111245 806999 1545467 2237230 2807756 3221680 3484266 3638472 
497.062 3741930 3849024 3985736 4140422 4273144 4332275 4276858 4088107 
500.919 3777759 3380668 2945276 2515018 2121377 1787777 1532532 1375981 
504.776 1338788 1431095 1645800 1951433 2297950 2620575 2859850 2974299 
508.633 2939971 2752767 2421280 1968973 1435616 886975 413046 105644 44468 
512.972 266943 757806 1451540 2253150 3060448 3776322 4335287 4703038 
516.829 4874598 4864278 4696004 4399714 4009111 3569914 3133364 2746398 
520.686 2442705 2231136 2097404 2012312 1947272 1884173 1823178 1778927 
524.543 1774834 1830864 1954428 2137260 2358811 2593175 2813759 2996218 
528.400 3117879 3156426 3097955 2944408 2724825 2494389 2331128 2311108 
532.257 2480493 2841640 3345607 3906392 4415747 4782127 4948691 4906399 
536.114 4690109 4365039 4005868 3674927 3418638 3260103 3201051 3227522 
539.971 3316525 3444955 3594135 3755633 3930164 4123429 4337060 4561713 
543.828 4772444 4935923 5017869 5000875 4894470 4739381 4592620 4506233 
547.685 4509146 4594059 4723403 4845749 4922719 4942960 4930125 4927343 
551.542 4981134 5116393 5324845 5567091 5787244 5932092 5965952 5882751 
555.398 5702063 5461855 5202666 4964678 4781054 4674669 4658693 4731878 
559.255 4877145 5060273 5236670 5360402 5393747 5321054 5149787 4910018 
563.112 4640608 4381808 4164273 4003560 3903449 3856646 3848121 3855041 
566.969 3850227 3803964 3689463 3493718 3224952 2917188 2621242 2398091 
570.826 2296884 2340389 2519550 2794850 3109736 3401540 3624038 3753728 
574.683 3793635 3767732 3710416 3653842 3613981 3588289 3557353 3497326 
578.540 3389451 3231261 3041362 2857682 2724192 2678448 2736328 2886934 
582.397 3095619 3317827 3515263 3663399 3756569 3803930 3819841 3813390 
586.254 3783742 3721410 3617222 3471474 3300166 3131228 3001156 2942073 
590.111 2972631 3094919 3295358 3548601 3820610 4075196 4276457 4388502 
593.968 4384686 4249287 3990552 3643016 3272990 2963323 2789415 2804021 
597.825 3016003 3390219 3854640 4325782 4727423 5008752 5156392 5188213 
601.682 5139460 5044451 4928014 4799279 4653937 4480221 4266050 4004965 
605.539 3701426 3372487 3051038 2783579 2617509 2594375 2732127 3016837 
609.396 3400003 3808309 4164909 4400551 4479015 4400451 4200806 3933908 
613.253 3658387 3422011 3251257 3153389 3118546 3127857 3156059 3178922 
617.109 3177320 3140339 3069591 2979471 2895206 2842774 2842174 2897140 
620.966 2992582 3097121 3173114 3191405 3139939 3030884 2894205 2771407 
624.823 2696785 2688417 2742064 2834069 2927095 2981739 2968695 2870590 
628.680 2687516 2435008 2144752 1857750 1618063 1467597 1433488 1524751 
632.537 1729790 2021300 2360843 2707721 3029583 3302937 3515363 3661494 
636.394 3738689 3744871 3681176 3554146 3379299 3181425 2992015 2839038 
640.251 2741797 2703953 2714356 2748899 2781311 2791882 2772741 2731460 
644.108 2687950 2669413 2699252 2789915 2935435 3111905 3278932 3390920 
647.965 3412092 3327878 3154724 2937903 2744064 2634609 2648511 2787047 
651.822 3012033 3254528 3436372 3500666 3425384 3233597 2980772 2740697 
655.679 2576043 2520816 2574843 2709855 2884299 3060882 3220612 3363505 
659.536 3501869 3648028 3802928 3951863 4069443 4126607 4106336 4009613 
663.393 3859220 3688661 3533468 3420709 3363438 3363572 3413228 3499464 
667.250 3601118 3691434 3745272 3749116 3705403 3622200 3503873 3350883 
671.107 3163902 2948145 2714856 2483958 2276999 2111189 1994570 1925373 
674.963 1894988 1894456 1918983 1969273 2050262 2167095 2320102 2503520 
678.820 2704287 2902611 3076498 3206893 3280768 3295658 3258835 3186331 
682.677 3097522 3012133 2946643 2909782 2901743 2914019 2932499 2940105 
686.534 2922625 2872458 2792716 2698452 2615942 2578976 2618809 2758669 
690.391 3004459 3341701 3734511 4131892 4484774 4753384 4922685 5003758 
694.248 5031378 5049982 5099496 5205147 5368788 5571891 5784389 5979019 
698.105 6138214 6259951 6355159 6442519 6541400 6665942 6827240 7032743 
701.962 7290028 7605022 7979097 8403049 8853047 9295591 9690133 10003550 
705.819 10221587 10355163 10440039 10525814 10665121 10892868 11220313 
709.194 11633726 12104087 12598151 13092096 13580278 14076198 14605921 
712.569 15197916 15876560 16654758 17533974 18507700 19565614 20696894 
715.943 21890014 23132690 24407320 25689462 26951042 28159972 29286704 
719.318 30306568 31197264 31937808 32507140 32883286 33049118 32998316 
722.693 32737922 32287940 31678866 30947840 30131696 29270328 28401576 
726.068 27557504 26762642 26026536 25343412 24692926 24049402 23389940 
729.443 22704036 21998018 21295584 20629828 20032540 19529084 19131080 
732.817 18836476 18631156 18494250 18401322 18327282 18251356 18157270 
736.192 18035366 17883456 17706988 17517176 17327340 17149824 16993780 
739.567 16862520 16755201 16667807 16592825 16519712 16434914 16322264 
742.942 16165689 15955167 15690945 15387268 15070149 14773692 14527182 
746.317 14347383 14232841 14166562 14122507 14074692 14006930 13914443 
749.692 13802274 13675874 13536966 13378317 13186697 12949175 12662077 
753.066 12335999 11996983 11677734 11411067 11219360 11108564 11066824 
756.441 11068693 11084940 11087013 11057647 10993346 10902788 10803487 
759.816 10715721 10657990 10640299 10664442 10724110 10809873 10911249 
763.191 11020261 11132598 11245372 11355046 11455868 11540008 11599728 
766.566 11631037 11637231 11629064 11623108 11635019 11672935 11732400 
769.940 11794735 11833038 11815674 11719363 11534359 11268937 10945499 
773.315 10596702 10258837 9961780 9728353 9570649 9489634 9475851 9512020 
777.172 9575120 9637552 9671363 9651239 9556626 9377383 9115609 8787584 
781.029 8420177 8049164 7711925 7438075 7245385 7134487 7089759 7083932 
784.886 7089253 7085144 7063489 7028634 6993379 6970247 6964557 6971392 
788.743 6977991 6970145 6936881 6876048 6792976 6697638 6598082 6498919 
792.600 6401325 6306779 6221799 6158411 6130653 6148094 6208254 6293870 
796.457 6375165 6420963 6411850 6347628 6250236 6156832 6107667 6128636 
800.314 6224757 6378493 6559564 6734788 6881804 6994860 7083124 7162242 
804.171 7243701 7329150 7407640 7462109 7478660 7456412 7412459 7380205 
808.028 7397664 7499493 7702515 8000157 8361432 8740386 9089489 9368207 
811.885 9555915 9651103 9667840 9626610 9548193 9446796 9329782 9200820 
815.742 9064587 8929141 8805910 8704991 8628767 8569319 8510386 8432001 
819.598 8321002 8177786 8017741 7866729 7748488 7676277 7645048 7635033 
823.455 7619049 7576867 7503875 7415459 7339327 7305764 7334340 7424694 
827.312 7555457 7690947 7793689 7832417 7792980 7679278 7510618 7312638 
831.169 7111010 6924794 6762855 6624996 6504738 6395407 6294172 6206573 
835.026 6144800 6125948 6163486 6261833 6411581 6592161 6778470 6948193 
838.883 7092116 7213986 7327094 7444177 7568606 7688687 7780735 7815988 
842.740 7775102 7656042 7477211 7269947 7069012 6901128 6776956 6694374 
846.597 6645014 6622641 6627620 6664899 6738120 6843093 6964523 7079991 
850.454 7166015 7208663 7206641 7170731 7116905 7059987 7008902 6966476 
854.311 6935366 6922067 6938160 6996207 7101647 7245857 7403899 7543657 
858.168 7634123 7658470 7620331 7542173 7455333 7386508 7351021 7349437 
862.025 7373195 7411684 7458536 7510753 7564223 7607888 7621679 7580980 
865.882 7469053 7286187 7056114 6819498 6625198 6509850 6487349 6547152 
869.739 6662947 6805025 6952469 7099593 7252595 7419032 7599053 7780465 
873.596 7942245 8063915 8133051 8151822 8133692 8096692 8053654 8008088 
877.452 7955237 7887480 7800942 7699176 7590624 7485604 7389271 7301350 
881.309 7218534 7139775 7071134 7026547 7022203 7069989 7170428 7310718 
885.166 7466727 7610552 7720391 7782692 7796522 7769131 7713611 7643295 
889.023 7571843 7513450 7480210 7482334 7523428 7599525 7699142 7807317 
892.880 7913124 8012307 8109453 8213678 8330155 8453116 8562730 8629072 
896.737 8625522 8536844 8369978 8151349 7920986 7716377 7559638 7453918 
900.594 7384755 7330296 7270620 7198523 7119768 7050355 7006746 7001224 
904.451 7035976 7104140 7191785 7283559 7366152 7430020 7471177 7490762 
908.308 7495245 7494605 7500302 7522248 7564493 7623534 7689362 7749972 
912.165 7795747 7824354 7842606 7863963 7901449 7962965 8047004 8143922 
916.022 8239510 8320799 8380990 8419940 8441292 8448522 8441460 8416697 
919.879 8370012 8300906 8215602 8127041 8052202 8004307 7990538 8008628 
923.736 8048995 8097199 8140005 8168669 8179102 8171607 8149357 8116576 
927.593 8078295 8040219 8009437 7992022 7993373 8016289 8060775 8124847 
931.450 8206350 8303709 8416156 8542859 8679435 8817406 8944395 9046216 
935.306 9110974 9133950 9119806 9082248 9039010 9008360 9002136 9023177 
939.163 9064452 9113139 9154016 9174321 9168297 9138281 9093481 9045404 
943.020 9006161 8982076 8973112 8973450 8975852 8976089 8977002 8988537 
946.877 9023787 9093245 9196555 9319863 9437246 9521063 9549445 9517981 
950.734 9441141 9349824 9277786 9249083 9270407 9329545 9402472 9465827 
954.591 9508904 9537795 9572648 9634639 9736791 9873099 10020978 10145538 
958.448 10215854 10214531 10144318 10025183 9887132 9760172 9664791 9610722 
962.305 9597917 9621529 9675124 9752582 9847610 9950558 10048342 10125358 
966.162 10166397 10163243 10116676 10039086 9949067 9869574 9820428 9813412 
970.019 9851169 9926793 10027319 10136346 10240415 10331105 10406270 
973.394 10469093 10525102 10577145 10622676 10651674 10649263 10601625 
976.768 10502018 10355536 10180983 10008263 9867032 9779997 9755055 9782843 
980.625 9839916 9895301 9921539 9898758 9820089 9689760 9521198 9330933 
984.482 9135608 8950043 8784913 8646715 8537926 8457812 8403285 8371768 
988.339 8362041 8374504 8409738 8466022 8536912 8610449 8671829 8707188 
992.196 8710298 8685858 8650535 8626198 8634378 8687041 8781633 8901949 
996.053 9023854 9124374 9188399 9213477 9209010 9190938 9174422 9169482 
999.910 9178889 9199093 9222886 9242753 9253111 9250031 9231516 9197841 
1003.767 9152493 9102312 9057888 9031127 9030485 9056941 9101094 9145421 
1007.624 9166537 9145048 9071489 8951295 8802968 8652664 8528125 8448116 
1011.481 8419872 8437541 8485956 8545799 8598924 8634142 8646377 8636102 
1015.338 8606968 8563270 8508190 8443690 8371768 8296042 8223335 8164179 
1019.195 8131025 8136494 8189164 8290132 8431696 8596964 8764052 8907191 
1023.052 9004876 9042900 9017088 8933910 8809427 8666353 8528024 8418724 
1026.909 8358763 8362479 8437440 8582296 8787550 9034341 9296370 9542299 
1030.766 9736283 9846831 9849474 9733741 9506195 9192528 8833468 8475414 
1034.624 8166103 7940592 7814672 7784311 7830225 7925407 8043797 8168669 
1038.481 8291922 8411967 8527450 8633161 8717938 8769394 8777204 8740352 
1042.339 8667503 8575233 8480145 8393354 8316172 8242347 8162997 8074109 
1046.196 7980210 7894869 7835488 7815178 7839266 7902933 7994722 8101925 
1050.054 8216548 8336302 8463386 8600343 8746032 8893933 9035052 9160480 
1053.911 9264822 9347623 9410259 9452789 9471144 9457733 9405688 9313262 
1057.768 9188129 9045032 8901983 8772606 8659931 8556849 8451494 8335998 
1061.626 8213239 8099731 8020643 8000055 8049097 8158473 8298947 8431021 
1065.483 8514407 8524138 8458184 8338160 8200408 8084337 8022095 8028440 
1069.341 8098144 8209592 8334478 8445109 8523429 8565973 8583885 8598417 
1073.198 8631978 8703537 8818962 8970136 9135744 9288550 9401863 9456481 
1077.056 9446424 9377687 9266142 9129821 8987488 8853149 8736431 8643909 
1080.913 8579357 8542554 8529241 8529849 8530661 8515488 8472610 8397238 
1084.770 8295367 8181432 8075695 7996443 7954158 7948791 7970390 8002148 
1088.628 8025976 8030161 8010686 7972279 7925642 7882688 7851681 7833834 
1092.485 7822060 7804416 7768355 7705449 7615273 7506943 7396214 7299396 
1096.343 7228304 7186193 7166958 7157796 7145131 7119734 7078779 7024560 
1100.200 6962368 6896044 6826297 6753297 6678896 6609924 6559262 6541232 
1104.057 6565855 6632767 6729505 6835655 6927959 6991931 7026412 7043216 
1107.915 7061098 7096932 7157493 7236895 7319445 7388361 7434435 7460322 
1111.772 7479705 7509236 7562200 7640496 7734490 7826715 7900673 7945991 
1115.630 7962425 7957600 7942515 7925912 7910290 7892946 7868416 7832316 
1119.487 7784075 7726732 7666429 7610147 7564156 7534520 7526935 7546084 
1123.345 7595816 7675400 7779723 7897906 8016053 8121404 8204764 8263824 
1127.202 8302257 8327993 8348360 8368188 8389536 8412677 8438623 8470584 
1131.059 8513494 8571414 8644653 8727471 8807837 8871140 8903741 8896876 
1134.917 8850410 8772234 8677644 8583716 8509676 8471800 8481057 8542893 
1138.774 8655672 8810711 8993273 9187079 9376029 9547854 9697283 9824631 
1142.632 9934082 10030947 10118236 10196078 10262670 10315971 10356113 
1146.007 10385976 10409834 10431724 10453683 10475780 10498556 10524388 
1149.382 10560000 10613814 10694258 10803589 10934966 11071446 11190800 
1152.757 11270637 11295053 11260912 11176929 11061929 10936359 10819317 
1156.133 10723023 10651912 10604409 10575787 10560000 10550936 10542822 
1159.508 10530703 10509792 10476764 10430570 10373148 10308608 10242891 
1162.883 10182441 10133125 10100838 10091037 10108977 10159207 10243400 
1166.258 10358659 10495806 10640842 10774921 10879244 10940063 10949815 
1169.634 10909346 10825941 10709913 10571340 10417198 10251475 10075538 
1173.009 9890793 9701010 9512257 9334183 9177197 9050073 8957891 8900529 
1176.866 8872560 8864545 8866202 8868366 8864579 8852202 8830560 8801176 
1180.724 8765472 8725409 8684371 8647053 8621467 8616566 8640800 8698838 
1184.581 8789342 8904045 9029266 9150497 9255277 9336689 9394752 9434165 
1188.439 9461933 9482116 9495731 9500031 9490785 9465353 9425497 9376638 
1192.296 9327887 9287840 9263434 9257274 9268444 9293019 9325551 9360455 
1196.153 9391163 9410903 9413070 9391806 9343900 9271693 9182307 9087695 
1200.011 9002068 8938002 8902693 8897484 8917304 8952715 8993409 9031094 
1203.868 9060459 9079643 9087763 9083872 9065399 9028827 8971252 8893392 
1207.726 8801717 8709555 8634615 8594091 8600749 8656348 8750596 8861502 
1211.583 8963472 9033022 9057820 9039889 8995506 8949739 8926131 8941825 
1215.441 9000884 9095375 9208975 9324671 9429933 9518489 9590905 9651374 
1219.298 9703279 9747702 9782708 9806193 9817717 9819648 9816801 9813514 
1223.155 9811650 9809549 9802872 9787757 9763968 9737164 9717782 9717477 
1227.013 9745635 9805176 9891098 9991311 10090359 10173419 10228542 10250321 
1230.870 10239092 10200419 10143096 10077505 10014672 9963136 9929065 
1234.245 9914250 9916183 9928387 9942219 9949303 9942455 9918217 9876319 
1238.103 9820123 9754648 9686813 9624002 9572478 9537557 9521300 9521977 
1241.960 9533730 9548836 9559235 9558896 9545923 9522993 9495188 9468198 
1245.818 9445813 9429052 9417573 9410294 9407517 9411343 9423702 9445475 
1249.675 9474157 9504028 9528683 9543316 9546838 9542434 9537015 9536067 
1253.533 9542062 9552359 9560386 9559404 9545280 9519133 9487162 9457665 
1257.390 9437619 9429966 9433996 9446152 9463118 9483572 9509006 9540436 
1261.247 9577390 9616041 9650019 9674548 9687999 9694809 9703043 9722695 
1265.105 9760647 9818021 9889912 9967645 10042103 10105484 10153475 10183968 
1268.962 10196756 10191905 10171113 10138653 10101482 10070723 10058176 
1272.338 10072012 10115352 10183290 10265689 10349666 10424427 10484741 
1275.713 10530805 10567266 10599893 10633168 10668280 10703257 10735624 
1279.088 10762591 10782699 10795606 10801041 10798697 10788440 10771388 
1282.463 10751518 10734638 10728220 10738035 10766497 10811300 10866775 
1285.839 10925894 10983252 11037288 11089835 11145312 11207834 11279751 
1289.214 11360249 11446820 11536061 11624980 11711806 11794531 11871686 
1292.589 11940886 12000695 12051724 12097000 12142554 12194792 12258385 
1295.964 12334123 12418296 12503645 12582734 12651263 12709055 12759655 
1299.339 12808657 12859883 12913231 12965459 13010250 13042721 13060168 
1302.715 13064506 13060203 13053476 13048969 13048832 13052486 13057266 
1306.090 13059930 13057027 13045828 13024112 12990176 12942485 12881658 
1309.465 12809408 12729219 12645668 12563703 12487004 12418023 12357305 
1312.840 12303547 12253989 12205084 12152844 12093764 12025425 11947187 
1316.216 11860517 11768861 11677530 11591492 11514386 11448487 11394399 
1319.591 11351882 11321716 11305596 11305392 11321614 11352938 11394638 
1322.966 11439947 11482507 11516428 11539191 11551338 11555217 11554435 
1326.341 11552495 11554299 11565357 11593603 11647884 11734613 11855477 
1329.717 12004374 12168791 12331055 12475001 12591432 12680738 12753240 
1333.092 12824526 12911115 13023362 13164291 13329763 13512423 13705077 
1336.467 13904897 14112785 14332143 14563294 14801701 15034886 15247399 
1339.842 15425649 15564236 15666727 15743647 15806112 15862092 15915398 
1343.218 15967404 16019313 16073944 16136251 16211672 16303927 16413338 
1346.593 16536441 16668117 16804138 16943304 17087200 17238556 17398380 
1349.968 17563232 17725074 17872682 17996924 18092980 18163352 18216596 
1353.343 18265318 18322410 18397346 18496050 18621820 18776930 18965530 
1356.719 19193378 19466842 19790830 20167884 20598072 21082074 21625606 
1360.094 22243680 22962882 23814406 24825978 26001734 27308324 28673468 
1363.469 30005212 31222366 32268062 33117198 33762100 34203716 34452436 
1366.844 34532180 34492148 34404948 34367288 34474100 34794048 35364624 
1370.220 36191864 37268704 38594008 40187524 42086628 44326580 46906624 
1373.595 49744716 52660424 55417560 57783348 59605444 60823572 61427812 
1376.970 61420640 60793156 59536464 57673256 55285752 52520400 49543492 
1380.345 46516556 43558072 40735464 38089052 35641348 33406448 31388026 
1383.721 29571210 27919314 26378940 24894710 23423578 21952082 20505316 
1387.096 19136206 17900892 16832312 15929386 15169642 14526017 13976647 
1390.471 13507536 13107019 12760610 12448165 12145996 11832085 11495605 
1393.846 11140587 10788507 10466480 10195467 9978528 9805889 9661843 9536067 
1397.704 9426275 9335571 9266887 9217741 9179668 9142815 9100215 9050546 
1401.561 8996250 8940303 8883416 8824170 8761854 8700461 8650568 8627686 
1405.419 8644079 8700731 8785725 8879087 8960158 9016378 9047535 9063470 
1409.276 9079068 9105763 9146403 9193746 9235646 9263671 9279580 9295185 
1413.133 9327446 9388725 9482183 9600627 9730997 9860897 9984869 10105179 
1416.991 10229389 10361712 10495874 10614323 10698639 10745507 10773799 
1420.366 10811809 10884238 11001944 11164928 11368277 11608984 11888883 
1423.741 12214557 12590613 13013119 13467067 13932439 14392659 14844453 
1427.117 15300973 15790993 16352780 17021000 17815132 18728770 19735104 
1430.492 20799248 21892698 22997816 24105054 25208518 26300186 27374700 
1433.867 28437304 29507266 30624988 31844276 33210720 34716984 36284964 
1437.242 37797464 39165720 40371984 41457472 42486440 43524852 44621708 
1440.618 45804948 47078564 48429672 49835608 51272208 52722712 54175364 
1443.993 55621560 57056076 58476352 59887748 61307216 62760704 64274208 
1447.368 65859892 67509952 69196880 70896240 72607208 74355216 76185112 
1450.743 78137216 80226096 82421440 84652896 86837720 88899680 90805024 
1454.119 92562176 94203008 95760624 97238872 98590128 99714904 100530168 
1457.494 101048560 101363240 101579304 101738960 101835968 101850208 
1460.387 101774768 101618944 101400104 101127560 100788976 100339424 
1463.280 99705768 98798984 97548352 95935104 93984752 91734912 89200992 
1466.655 86362560 83203160 79739880 76043648 72207488 68333480 64488256 
1470.030 60654944 56750456 52648416 48270640 43698352 39233860 35276604 
1473.406 32083050 29653648 27802200 26293920 24959946 23712704 22539384 
1476.781 21464254 20512610 19685488 18960232 18303504 17686592 17092852 
1480.156 16519919 15972456 15456378 14972736 14518205 14088826 13684560 
1483.531 13309024 12967575 12661122 12383282 12120032 11854661 11573967 
1486.907 11275058 10966091 10661148 10372741 10103720 9847915 9598120 
1490.282 9357814 9140582 8963100 8832522 8744308 8683998 8632654 8571009 
1494.139 8484841 8365925 8215265 8040624 7855494 7671622 7495751 7329386 
1497.997 7173830 7033551 6915334 6823335 6755653 6703425 6654738 6599159 
1501.854 6531914 6454659 6374560 6300661 6239916 6196053 6167519 6147052 
1505.712 6121714 6078669 6012581 5931890 5850510 5773779 5698907 5623076 
1509.569 5546922 5475646 5416695 5378081 5364092 5374659 5404315 5444844 
1513.426 5487390 5522826 5542156 5534605 5488766 5397404 5264707 5111230 
1517.284 4966622 4858180 4797705 4782562 4800217 4833419 4862134 4865954 
1521.141 4831308 4757839 4658660 4548085 4434124 4316780 4194048 4066567 
1524.999 3939057 3819106 3714526 3628214 3557687 3497359 3444487 3400538 
1528.856 3370985 3361201 3373389 3404679 3448495 3495021 3535606 3564135 
1532.714 3578567 3581307 3577364 3570315 3561262 3550371 3539949 3534871 
1536.571 3543055 3574491 3637737 3735213 3856278 3968448 4021284 3976072 
1540.428 3840165 3666406 3508583 3395061 3326075 3289482 3272689 3268383 
1544.286 3273457 3287045 3307077 3329714 3350916 3368447 3382639 3395128 
1548.143 3407952 3420976 3430093 3428991 3411558 3376962 3330582 3281569 
1552.001 3238705 3207794 3190103 3182460 3179289 3177153 3178421 3191538 
1555.858 3227889 3296894 3399436 3520107 3613513 3599214 3418070 3125521 
1559.715 2864153 2713322 2663513 2671414 2699886 2724092 2731427 2719124 
1563.573 2692584 2663112 2644710 2648444 2678548 2732094 2803554 2888034 
1567.430 2982873 3085141 3190270 3287879 3364440 3410322 3426152 3421243 
1571.288 3406883 3390219 3373189 3353354 3327276 3292787 3251257 3209363 
1575.145 3178188 3169910 3189469 3229859 3277196 3321500 3361334 3400872 
1579.003 3444821 3493685 3542153 3580237 3594804 3575894 3521510 3438910 
1582.860 3342135 3247050 3168541 3115075 3089746 3090447 3113306 3153722 
1586.717 3207627 3271421 3339864 3406549 3464059 3505777 3527723 3529927 
1590.575 3515430 3488975 3456243 3423714 3397198 3383874 3390920 3423414 
1594.432 3483231 3566273 3663231 3760078 3843508 3904620 3940830 3955642 
1598.290 3956010 3949590 3941531 3934544 3928793 3923510 3918060 3913145 
1602.147 3910203 3910972 3916957 3928458 3945443 3967412 3993294 4020883 
1606.005 4046065 4063457 4067069 4053022 4021384 3977009 3927689 3881217 
1609.862 3841135 3805434 3768501 3723315 3665203 3593835 3512190 3425017 
1613.719 3335690 3244714 3149517 3045866 2931999 2813259 2703186 2618442 
1617.577 2568843 2552978 2562244 2587009 2620209 2657678 2697852 2739830 
1621.434 2781311 2817494 2841173 2845409 2828766 2796818 2760136 2727559 
1625.292 2704187 2690417 2683149 2678481 2674414 2672014 2675881 2691384 
1629.149 2721691 2765805 2818961 2874326 2925127 2967060 2997420 3014836 
1633.006 3017772 3002291 2961355 2885900 2771974 2630343 2489624 2382865 
1636.864 2325998 2314605 2333026 2365641 2399557 2426911 2443472 2448170 
1640.721 2442739 2430277 2414983 2400390 2389128 2382065 2378634 2376702 
1644.579 2372604 2363275 2347085 2328163 2316970 2326864 2363409 2420348 
1648.436 2484692 2544846 2594209 2631476 2661479 2694251 2747532 2844675 
1652.294 3003725 3205658 3372688 3424282 3356292 3218976 3059213 2901743 
1656.151 2757502 2630143 2519250 2424146 2343953 2278231 2227505 2193470 
1660.008 2178650 2185411 2215616 2267639 2335192 2408486 2475094 2525949 
1663.866 2559478 2580342 2596642 2616475 2646511 2690617 2750099 2821730 
1667.723 2897874 2965859 3009664 3016971 2985642 2925661 2853346 2783679 
1671.581 2724258 2676148 2636210 2599342 2560311 2515584 2464864 2412751 
1675.438 2367573 2337491 2326730 2333993 2355580 2386063 2419315 2449203 
1679.296 2468263 2470796 2454401 2421614 2378167 2332060 2292920 2270737 
1683.153 2277132 2319868 2393093 2475361 2545979 2598075 2635676 2665413 
1687.010 2692584 2719690 2748099 2777443 2805855 2830767 2848010 2853747 
1690.868 2845309 2822430 2787280 2744398 2699085 2657245 2625109 2609009 
1694.725 2615509 2649478 2709988 2790715 2882731 2981172 3086176 3199917 
1698.583 3322101 3445389 3550371 3613280 3622367 3591830 3547131 3507413 
1702.440 3478488 3458381 3442851 3428857 3416267 3408619 3410590 3424816 
1706.297 3448896 3475983 3498261 3510085 3509551 3497793 3478688 3456243 
1710.155 3434268 3414297 3396297 3377697 3355190 3325006 3283439 3227188 
1714.012 3155224 3069024 2973098 2875693 2787547 2720357 2684216 2683282 
1717.870 2712822 2760003 2811658 2860217 2903578 2942774 2978837 3010332 
1721.727 3033387 3041795 3029049 2991548 2930931 2854214 2772241 2697085 
1725.585 2637743 2599975 2585409 2591575 2612342 2639410 2664079 2678081 
1729.442 2676881 2661112 2637476 2616175 2608508 2625442 2674381 2756302 
1733.299 2859483 2957552 3017805 3025112 2989446 2932466 2871957 2816827 
1737.157 2770207 2732027 2700386 2673681 2650778 2632343 2619642 2614342 
1741.014 2616575 2624609 2634143 2638110 2628176 2596675 2538613 2453435 
1744.872 2345252 2221444 2089347 1956925 1830532 1715452 1616034 1536522 
1748.729 1480830 1452936 1455130 1485916 1538318 1600303 1657541 1698653 
1752.587 1717847 1714820 1692134 1652752 1598374 1530171 1449512 1361655 
1756.444 1275577 1203437 1156524 1139714 1151442 1185396 1233740 1287573 
1760.301 1338522 1379172 1403337 1407991 1393398 1363150 1322269 1275410 
1764.159 1227460 1181641 1141641 1110082 1088623 1078293 1078260 1087062 
1768.016 1103472 1127024 1158518 1198486 1245703 1295416 1337159 1356802 
1771.874 1340948 1285081 1197888 1096894 997518 907660 829307 761358 702612 
1776.213 653994 617726 596125 591547 604254 632525 673540 722989 775133 
1780.553 824228 865129 894080 908822 908424 893217 865262 829540 793423 
1784.892 764777 749542 749210 760528 776494 790302 796477 792394 778585 
1789.232 757806 733876 710344 689702 673042 660299 650311 641750 633653 
1793.572 624893 614408 601633 585973 568023 549179 531331 515838 503299 
1797.911 491987 478619 458751 429032 388703 341116 293501 254444 231900 
1802.251 229878 248145 283090 329444 381275 433377 481903 523535 555416 
1806.590 574592 577844 562416 526852 471853 401206 321618 242774 174883 
1810.930 127518 107433 115885 149659 201932 264258 327056 381739 420840 
1815.270 439314 436362 416230 387576 360648 343934 340154 345095 348610 
1819.609 338463 305603 247018 167458 77076 -11530 -88425 -147785 -189584 
1823.949 -218430 -240089 -259196 -276680 -289925 -295819 -291481 -274726 
1827.806 -243665 -195248 -125361 -31476 83340 207402 323972 416230 472814 
1832.146 490594 472052 423792 355076 276425 196695 122447 57756 5798 -29720 
1836.968 -43072 -29256 13817 81583 162486 239824 297645 324934 318137 281432 
1841.789 225834 166033 116316 86488 78866 88775 107135 127419 147637 169248 
1846.611 193811 221325 248974 272811 289555 298143 299900 297778 292771 
1850.951 282857 263130 227093 171071 97226 14678 -62883 -121021 -150932 
1855.290 -152389 -134337 -110885 -98860 -110156 -147123 -201971 -260090 
1859.148 -304362 -320354 -301713 -251215 -179979 -102140 -32105 20212 50698 
1863.487 59082 48278 21040 -19681 -71861 -134072 -204918 -282309 -363295 
1867.827 -443372 -516583 -576712 -618602 -639115 -637759 -617411 -582503 
1871.684 -540940 -502154 -474948 -466376 -478225 -506357 -542661 -577903 
1875.542 -605102 -622837 -633524 -641431 -647089 -646295 -628528 -582238 
1879.399 -500764 -386402 -252639 -120193 -10039 64616 100175 103125 83207 
1883.739 49803 6162 -50460 -123506 -211807 -305123 -383257 -423246 -406463 
1888.078 -329393 -208694 -82363 5036 20676 -43635 -168188 -316016 -447344 
1892.418 -534388 -566851 -552920 -512446 -470976 -448105 -449628 -465945 
1896.276 -477430 -463562 -410502 -316844 -193062 -60995 54442 129473 147703 
1900.615 104219 5765 -130660 -282806 -424934 -534983 -599047 -612448 -581179 
1904.955 -518867 -444861 -379219 -340683 -343000 -391534 -481932 -599709 
1908.812 -723640 -828124 -891285 -902527 -865129 -796209 -720432 -663201 
1912.670 -641663 -660819 -712261 -778779 -838607 -873858 -876636 -850082 
1916.527 -806594 -763465 -737897 -738658 -763267 -801203 -838872 -866352 
1920.384 -878356 -874619 -857324 -829116 -790884 -743586 -689171 -631473 
1924.242 -579558 -545342 -541768 -579359 -661282 -778349 -909967 -1027793 
1928.099 -1098593 -1095916 -1006769 -835565 -603812 -344358 -94156 117409 
1931.957 271320 360880 388139 362074 292970 189203 56729 -100119 -277044 
1936.296 -465945 -654798 -827958 -967528 -1059360 -1095420 -1074631 -1002273 
1940.154 -890557 -756982 -622076 -511156 -446152 -442312 -505364 -628363 
1944.011 -795415 -981513 -1156757 -1286179 -1334904 -1276169 -1096808 
1947.386 -806131 -436255 -42045 313594 577678 717048 730059 644139 503863 
1951.726 351959 218341 108196 4671 -121319 -296051 -527504 -800806 -1080844 
1956.066 -1324103 -1489964 -1557981 -1529586 -1428112 -1286476 -1139805 
1959.441 -1016587 -930466 -881365 -856928 -840724 -818533 -787610 -760687 
1963.298 -763432 -824817 -965148 -1177576 -1424842 -1635098 -1723026 
1966.673 -1621200 -1309568 -840724 -327274 84698 280305 205512 -115953 
1970.531 -595242 -1101303 -1499969 -1702036 -1681044 -1480156 -1177311 
1973.906 -864699 -610429 -449098 -386204 -409840 -504073 -662076 -881199 
1977.764 -1156658 -1472627 -1800609 -2102756 -2345772 -2512759 -2601959 
1981.139 -2623663 -2594021 -2529329 -2445913 -2362085 -2300555 -2284800 
1984.514 -2336083 -2461793 -2652250 -2872511 -3069236 -3185656 -3169374 
1987.889 -2994907 -2666641 -2216864 -1692795 -1154180 -661911 -269958 -20774 
1991.747 66140 -2783 -195546 -461510 -747059 -1001083 -1188612 -1296156 
1995.604 -1330412 -1309931 -1262591 -1213956 -1181442 -1175031 -1197336 
1998.979 -1246534 -1319214 -1409683 -1507893 -1595782 -1650315 -1646552 
2002.355 -1568479 -1416024 -1211015 -992587 -803154 -679246 -634318 -653540 
2006.212 -693670 -700385 -629388 -460021 -209687 73961 321353 467010 460210 
2010.552 280702 -61359 -526975 -1059294 -1594065 -2057546 -2384329 -2524388 
2014.409 -2452963 -2181260 -1755797 -1261864 -798690 -468328 -338663 -418777 
2018.266 -654268 -943493 -1179790 -1275739 -1199550 -978736 -697639 -458564 
2022.124 -357336 -446351 -720233 -1122454 -1562669 -1949400 -2205161 
2025.499 -2289480 -2198403 -1959790 -1617503 -1223670 -835829 -506721 
2028.874 -280289 -183689 -217735 -351376 -532568 -701708 -801501 -800079 
2032.732 -695456 -516782 -310090 -125361 -4241 27800 -43900 -222206 -501955 
2037.071 -865393 -1281058 -1704544 -2077431 -2343894 -2461101 -2412469 
2040.447 -2217985 -1929014 -1613377 -1330478 -1121694 -999794 -956585 
2043.822 -971694 -1021545 -1087554 -1152296 -1197997 -1203217 -1144729 
2047.197 -1006174 -790917 -527703 -266017 -66991 17130 -37108 -223398 
2051.054 -506555 -834473 -1150644 -1412160 -1594890 -1697712 -1737250 
2054.430 -1740451 -1735501 -1741111 -1762463 -1790809 -1806845 -1786288 
2057.805 -1709726 -1569734 -1375995 -1154213 -940286 -771536 -671207 -644078 
2061.662 -673820 -731017 -779970 -791281 -750863 -661712 -541470 -414375 
2065.520 -306183 -234923 -211476 -237009 -306183 -407920 -524592 -635873 
2069.377 -718050 -749474 -716495 -618139 -467766 -290753 -121684 7422 69885 
2073.717 49107 -57682 -241711 -483189 -756288 -1030438 -1276466 -1470778 
2077.574 -1598819 -1658402 -1659755 -1622455 -1566895 -1507992 -1451691 
2080.949 -1393632 -1323905 -1234904 -1126652 -1008951 -899386 -815722 
2084.325 -772627 -775472 -822039 -905172 -1016785 -1149619 -1295891 -1445384 
2088.182 -1581685 -1682794 -1727085 -1698735 -1597960 -1442345 -1266654 
2091.557 -1107847 -997777 -951196 -962834 -1010405 -1062203 -1091950 
2094.933 -1084546 -1040916 -974702 -906263 -853819 -828289 -831894 -858879 
2098.790 -899551 -942633 -978008 -997579 -996290 -973248 -932648 -883779 
2102.647 -838673 -811125 -810927 -840790 -895186 -960718 -1017612 -1043759 
2106.505 -1020455 -934500 -782980 -574197 -330022 -84781 122745 251493 
2110.362 271717 171800 -37804 -326611 -649107 -955990 -1210949 -1393797 
2114.220 -1506440 -1565805 -1596409 -1618956 -1644274 -1673156 -1699825 
2117.595 -1718373 -1727812 -1732399 -1739824 -1754576 -1773485 -1784572 
2120.970 -1768700 -1709594 -1598522 -1440661 -1254595 -1070003 -916117 
2124.345 -816086 -779606 -802129 -867509 -954469 -1044585 -1125924 -1195882 
2128.203 -1259683 -1326481 -1404531 -1495907 -1594593 -1687382 -1754576 
2131.578 -1777873 -1747250 -1664376 -1548802 -1430622 -1346003 -1324169 
2134.953 -1376490 -1490492 -1633843 -1763486 -1840302 -1846769 -1791073 
2138.329 -1707350 -1639521 -1628859 -1695567 -1833308 -2008770 -2179447 
2141.704 -2307179 -2372070 -2377408 -2346365 -2309849 -2292183 -2303422 
2145.079 -2334831 -2366830 -2375168 -2338950 -2246828 -2094051 -1881411 
2148.454 -1612915 -1299228 -958106 -622308 -338398 -153118 -106280 -211012 
2152.312 -450488 -777059 -1129295 -1450403 -1701409 -1876957 -1995874 
2155.687 -2101140 -2231830 -2414018 -2650241 -2918228 -3178946 -3390886 
2159.062 -3520728 -3550931 -3482568 -3327397 -3107531 -2851378 -2590596 
2162.438 -2359712 -2184952 -2081322 -2048279 -2073672 -2138201 -2222666 
2165.813 -2314793 -2406933 -2493685 -2569483 -2623631 -2644412 -2622346 
2169.188 -2551926 -2438137 -2291030 -2122078 -1940263 -1751375 -1560820 
2172.563 -1380850 -1236060 -1159434 -1183821 -1328859 -1587627 -1926243 
2175.938 -2290140 -2624487 -2889133 -3070683 -3179077 -3241733 -3282840 
2179.314 -3312402 -3324569 -3303722 -3237096 -3127039 -2990892 -2854868 
2182.689 -2740828 -2655016 -2585392 -2511804 -2419026 -2307246 -2196194 
2186.064 -2114132 -2088049 -2127716 -2223094 -2347815 -2472929 -2576894 
2189.439 -2650636 -2696377 -2716858 -2706782 -2651459 -2531305 -2336116 
2192.815 -2075848 -1785364 -1515257 -1315646 -1221919 -1242338 -1360867 
2196.190 -1545071 -1764179 -1994126 -2222765 -2444463 -2649154 -2817374 
2199.565 -2924613 -2948835 -2884854 -2753998 -2600675 -2475071 -2417774 
2202.940 -2440806 -2521357 -2610193 -2648594 -2595075 -2437148 -2198733 
2206.316 -1926771 -1679130 -1499407 -1405984 -1388942 -1418831 -1459022 
2209.691 -1482402 -1482237 -1472165 -1480420 -1535430 -1653913 -1831856 
2213.066 -2044157 -2249136 -2406307 -2486569 -2483999 -2416753 -2322933 
2216.441 -2247586 -2224512 -2271023 -2382055 -2536872 -2706486 -2864841 
2219.817 -2993821 -3079928 -3115196 -3087331 -2982501 -2790905 -2514834 
2223.192 -2175524 -1813082 -1481774 -1231831 -1093635 -1072119 -1143638 
2226.567 -1268273 -1400436 -1507167 -1571385 -1593471 -1582114 -1548934 
2229.942 -1501025 -1442775 -1379859 -1322781 -1286014 -1285056 -1327934 
2233.318 -1407636 -1502709 -1583864 -1621729 -1599380 -1518492 -1397496 
2236.693 -1263615 -1140862 -1043494 -973149 -921043 -876041 -832456 -792174 
2240.550 -764193 -758868 -781921 -830935 -894360 -954205 -991529 -991695 
2244.408 -945774 -853654 -722615 -567513 -408085 -266912 -166168 -121485 
2248.265 -139405 -212370 -321380 -436983 -525750 -560498 -523963 -415335 
2252.123 -250719 -61359 115686 242111 287963 241647 111344 -73816 -273203 
2256.462 -441121 -542165 -560895 -505198 -403650 -294163 -213761 -182563 
2260.320 -200149 -246116 -291680 -307639 -277243 -200977 -93792 20742 121685 
2264.659 194871 237337 255140 259284 259782 264291 276890 298839 330803 
2268.999 372520 422266 476364 528876 572502 600671 609198 597784 569151 
2273.338 526653 473544 412217 343835 271320 200440 138853 95867 77871 85361 
2278.160 111543 144322 169546 175480 158011 121486 77374 39696 21405 29887 
2282.982 65941 123839 194606 268767 337966 397492 445085 480377 504327 
2287.322 518923 527051 533188 544435 568654 613810 686118 786053 908656 
2291.661 1041092 1166425 1265607 1322203 1327122 1281691 1197224 1091679 
2295.519 988252 906897 860547 853177 878874 924628 973873 1012064 1029301 
2299.858 1022426 994795 954446 912076 877579 859153 863004 891789 946211 
2304.198 1025316 1126193 1243875 1371826 1501277 1622286 1726031 1805477 
2308.055 1857085 1882542 1887700 1881344 1872825 1870995 1881876 1908699 
2311.913 1951866 2009616 2078027 2151744 2224275 2288623 2338023 2368839 
2315.770 2381665 2382365 2380999 2390161 2419581 2473662 2548312 2632009 
2319.627 2708854 2764771 2792249 2793583 2779344 2763938 2761103 2777443 
2323.485 2811791 2856849 2903845 2946677 2985142 3023811 3070959 3134332 
2327.342 3217207 3317227 3427221 3536575 3634797 3715362 3776155 3819707 
2331.200 3851230 3876102 3898200 3919999 3941498 3962931 3983563 4003326 
2335.057 4021652 4037337 4049042 4055129 4056801 4056099 4058173 4068841 
2338.915 4092321 4129316 4174912 4217835 4244937 4242160 4201475 4122626 
2342.772 4013592 3888171 3761315 3645054 3544258 3457245 3378064 3302069 
2346.629 3228156 3160698 3107433 3077900 3079869 3117545 3191305 3296827 
2350.487 3425551 3565672 3706005 3837190 3955240 4061450 4160493 4257518 
2354.344 4355869 4455214 4553241 4647038 4734960 4816801 4893297 4964678 
2358.202 5030607 5089539 5140835 5186939 5232243 5283589 5346380 5421861 
2362.059 5504504 5582362 5637140 5651339 5610724 5508631 5348594 5143081 
2365.917 4910052 4669477 4440150 4235602 4064126 3928091 3825858 3752558 
2369.774 3701861 3667074 3640610 3614783 3581641 3534003 3466196 3374457 
2373.631 3257399 3116744 2955951 2780944 2599509 2420281 2252984 2106028 
2377.489 1985649 1893690 1826605 1775400 1727594 1670447 1593353 1492699 
2381.346 1371360 1239422 1109916 995957 906830 845475 808194 786651 771482 
2385.686 754122 730225 699791 665642 631629 600704 573199 547221 520051 
2390.025 489765 457789 428999 411686 414240 443394 500015 578408 666040 
2394.365 746388 803580 825789 809522 760827 693518 624495 570810 544037 
2398.705 548084 578906 626751 678717 721529 744563 741011 708619 649382 
2403.044 570412 482533 398188 329974 287963 276226 292804 330571 379882 
2407.384 431586 481240 528411 575853 626253 678651 727204 762951 775498 
2411.723 758868 714559 651771 585475 531729 503763 506782 539060 591547 
2416.063 652833 711008 756545 784195 791497 779216 750570 710212 664547 
2420.403 620181 583915 560724 553193 561288 582257 612118 645698 678452 
2424.742 706030 725246 734473 734473 728233 720766 717779 722724 735734 
2429.082 752164 764644 765208 750305 722525 691228 669525 668927 695178 
2433.421 745293 807962 867486 910881 930106 925491 903809 873993 842985 
2437.761 813307 783498 750770 714559 678651 650444 639294 652169 690399 
2442.101 749409 819714 890229 950694 994164 1017511 1020865 1005721 974969 
2446.440 932862 884684 837607 799331 776427 772676 788112 818120 855235 
2450.780 890793 916493 926554 917887 891059 849724 800427 752197 714559 
2455.119 694912 696439 716352 745459 769988 776394 755416 705200 632359 
2459.459 550340 474971 419215 390660 389565 411852 450259 498224 551800 
2463.799 608236 665543 720699 769058 806236 829307 838570 838437 835615 
2468.138 836511 844446 857891 870806 875388 864365 834785 789041 734473 
2472.478 679779 633421 600240 580664 571739 568952 569052 571407 577844 
2476.817 591713 616000 651008 693817 738688 779514 811647 833822 848662 
2481.157 861543 878276 902115 932597 965405 993433 1009341 1008511 989946 
2485.497 956206 912641 865129 819216 778983 747550 727835 721927 731021 
2489.836 754288 787746 823996 854771 872367 873031 858688 836843 818751 
2494.176 814336 831100 870175 927848 996688 1069524 1141375 1210714 1277670 
2498.515 1343009 1404900 1458688 1496888 1511917 1498817 1458156 1395692 
2502.373 1322037 1250454 1192074 1154299 1139116 1143169 1159681 1180645 
2506.230 1199749 1213239 1220914 1224669 1227526 1232012 1238525 1246500 
2510.088 1254774 1262151 1268930 1275975 1284483 1293755 1300634 1298839 
2513.945 1280495 1239024 1170877 1078459 969622 857759 756578 678418 631264 
2518.285 616996 632458 670354 722591 780411 836578 885813 924561 950628 
2522.624 964608 968626 966766 964807 968526 982441 1008610 1046207 1091879 
2526.964 1139615 1183136 1216395 1234970 1236498 1221479 1192971 1155860 
2530.821 1115929 1079688 1051853 1035479 1031294 1037937 1052883 1073476 
2534.679 1097625 1124333 1153302 1184332 1216694 1248361 1276374 1296712 
2538.536 1305951 1301664 1283054 1252216 1213272 1172106 1135595 1110049 
2542.394 1099087 1103339 1119483 1141741 1163368 1178252 1184465 1183768 
2546.251 1181874 1185828 1202407 1234737 1281625 1337159 1393066 1440303 
2550.108 1471022 1481062 1469958 1440902 1399847 1355406 1316254 1289767 
2553.966 1280960 1290730 1315589 1348825 1382894 1410950 1429898 1440802 
2557.823 1448315 1458089 1474579 1498784 1528575 1559599 1587832 1611544 
2561.681 1632131 1653051 1677099 1704907 1733582 1757401 1770376 1768746 
2565.538 1753343 1729690 1706171 1690670 1688774 1701281 1725299 1755904 
2569.396 1788875 1822845 1859448 1902276 1955061 2019136 2092077 2167328 
2573.253 2235698 2287757 2315538 2314705 2285559 2232668 2163133 2086018 
2577.110 2009749 1940616 1883041 1839183 1809370 1793832 1792701 1806775 
2580.968 1836621 1882276 1941914 2011746 2087017 2161534 2229637 2286758 
2584.825 2329262 2355280 2363642 2354980 2332094 2299616 2265108 2237563 
2588.683 2225607 2235732 2269704 2323832 2389495 2455934 2511785 2548812 
2592.540 2563277 2555578 2529848 2492456 2450602 2411185 2381799 2369339 
2596.397 2379567 2416249 2479160 2563444 2658912 2752534 2831101 2884132 
2600.255 2906647 2900709 2874259 2838071 2803121 2777876 2765338 2764771 
2604.112 2771807 2781311 2789815 2795617 2800486 2807456 2819895 2839706 
2607.970 2866387 2897241 2927395 2951781 2966659 2969762 2962123 2946910 
2611.827 2928963 2913218 2904112 2903978 2912918 2928830 2947978 2965725 
2615.685 2978436 2983707 2982206 2976735 2972565 2974333 2985909 3007896 
2619.542 3037958 3070225 3098723 3118146 3126222 3124253 3116310 3107767 
2623.399 3102761 3103428 3109369 3118179 3127524 3136234 3144811 3155024 
2627.257 3168508 3186198 3206659 3227322 3245214 3258367 3266513 3271254 
2631.114 3274759 3279233 3285108 3291418 3295558 3295158 3289014 3277530 
2634.972 3263208 3249755 3241375 3241008 3250589 3269852 3296627 3327911 
2638.829 3360032 3389952 3416334 3439244 3460886 3483264 3508115 3534370 
2642.687 3558456 3574992 3578333 3565338 3536875 3498729 3460752 3432798 
2646.544 3423147 3434468 3463992 3504106 3545360 3579669 3602421 3613280 
2650.401 3615685 3614917 3615752 3621532 3633460 3651069 3672588 3695879 
2654.259 3718336 3737485 3751188 3758474 3760011 3758374 3757705 3762618 
2658.116 3776155 3798515 3826928 3856178 3880548 3896061 3902380 3902480 
2661.974 3902012 3906559 3919932 3942468 3971592 4002490 4030715 4053457 
2665.831 4070046 4081885 4091619 4101653 4113327 4127075 4142797 4159723 
2669.688 4177387 4195219 4212583 4227906 4240085 4247413 4249387 4246409 
2673.546 4240386 4233895 4229445 4228609 4231955 4238111 4244569 4248517 
2677.403 4247312 4239215 4223724 4201843 4175447 4147413 4120719 4098375 
2681.261 4082287 4073758 4072788 4078842 4090482 4106069 4124131 4142697 
2685.118 4160359 4175514 4187022 4194416 4198029 4198966 4198263 4196791 
2688.976 4194182 4189029 4178625 4160895 4134802 4101486 4064527 4028976 
2692.833 3999915 3980353 3970856 3968582 3968950 3966777 3958083 3941364 
2696.690 3918027 3890979 3864201 3841536 3825123 3816432 3815863 3823251 
2700.548 3838226 3859855 3887068 3917826 3949890 3980888 4009780 4035731 
2704.405 4059543 4082120 4104229 4125035 4142663 4154371 4157884 4152966 
2708.263 4141827 4129951 4123930 4129818 4151561 4188795 4237274 4289775 
2712.120 4339135 4379431 4409053 4429673 4446008 4463482 4485309 4511959 
2715.978 4541054 4568410 4590175 4604943 4614051 4621419 4631733 4648980 
2719.835 4674635 4707828 4745612 4784940 4823670 4861095 4897921 4934783 
2723.692 4971414 5005769 5034361 5053401 5060005 5053669 5036238 5011635 
2727.550 4984955 4960287 4940347 4925936 4915581 4907103 4897821 4885321 
2731.407 4868132 4845481 4817203 4784203 4747521 4708464 4668674 4629590 
2735.265 4592419 4558130 4527561 4501513 4480421 4464219 4452301 4442560 
2739.122 4432350 4418024 4396334 4365408 4324845 4276892 4225129 4174644 
2742.979 4129985 4094562 4070213 4056901 4053290 4057370 4066701 4078775 
2746.837 4091251 4102322 4110484 4115501 4118043 4119849 4122994 4129383 
2750.694 4139586 4152631 4166013 4176584 4181736 4180565 4174811 4167819 
2754.552 4164307 4167786 4179729 4198497 4220077 4238646 4249922 4251662 
2758.409 4246007 4238145 4235100 4243531 4267188 4305302 4352522 4401321 
2762.267 4443062 4471115 4483435 4482363 4473960 4465859 4465591 4477877 
2766.124 4504158 4542259 4587831 4635116 4678788 4714795 4741391 4758676 
2769.981 4769061 4776331 4785342 4800519 4824809 4859722 4903785 4953685 
2773.839 5005467 5055714 5102848 5147775 5192975 5242035 5297207 5358959 
2777.696 5425619 5494135 5561252 5625459 5687191 5748932 5813570 5883020 
2781.554 5956848 6032302 6104878 6169972 6225463 6272422 6315654 6362119 
2785.411 6420257 6496329 6593137 6709382 6839323 6974725 7106026 7225474 
2789.269 7327701 7411246 7478491 7534520 7585937 7639113 7698839 7768288 
2793.126 7848004 7936947 8033671 8136730 8244913 8357852 8475077 8596051 
2796.983 8719156 8842226 8962627 9077985 9187046 9289803 9388082 9485130 
2800.841 9584741 9690811 9806634 9933845 10073029 10223011 10382141 10547881 
2804.698 10717895 10890184 11063833 11238333 11414435 11593772 11778563 
2808.073 11971232 12174653 12390135 12618174 12856879 13102955 13351153 
2811.449 13596243 13833538 14060112 14275401 14481343 14681727 14881072 
2814.824 15084523 15296752 15521996 15764020 16026463 16311737 16621673 
2818.199 16956568 17314856 17694184 18091218 18502930 18927042 19362202 
2821.574 19807546 20262926 20728032 21203480 21691292 22195868 22724492 
2824.950 23286378 23891732 24549610 25265512 26041066 26874368 27761718 
2828.325 28700194 29689836 30734688 31843350 33026270 34295428 35662280 
2831.700 37136188 38725624 40438388 42281796 44264536 46395900 48685008 
2835.075 51141988 53775716 56594088 59603124 62805736 66201276 69783824 
2838.451 73543440 77465128 81530800 85722600 90022880 94417216 98896664 
2841.826 103455640 108092944 112809200 117605048 122478072 127421512 
2844.719 132421000 137455984 142498272 147511696 152456704 157285808 
2847.612 161946320 166382992 170532848 174330960 177712672 180612032 
2850.505 182969616 184733632 185860784 186323904 186112272 185237376 
2853.398 183731792 181652736 179074816 176079600 172755056 169181584 
2856.291 165428320 161557456 157619632 153660640 149725536 145854240 
2859.184 142087312 138462192 135009936 131759312 128733872 125952184 
2862.077 123429480 121175592 119193520 117479136 116020248 114797432 
2864.970 113785704 112959080 112291056 111756280 111332584 110996176 
2867.864 110720104 110474328 110220400 109916520 109519808 108988104 
2870.757 108289456 107403496 106325024 105064920 103648808 102113992 
2873.650 100501272 98854984 97215696 95617104 94089136 92655344 91335768 
2877.025 90149384 89113080 88242776 87553256 87054400 86752744 86649144 
2880.400 86739432 87014968 87463800 88073184 88829864 89722776 90743320 
2883.775 91885096 93144800 94519440 96005936 97599544 99292160 101072272 
2887.151 102927104 104841184 106800640 108794896 110816312 112861024 
2890.044 114927656 117015152 119121840 121243272 123372024 125499632 
2892.937 127615360 129710048 131776992 133813736 135822128 137808032 
2895.830 139781056 141750064 143722624 145701520 147685456 149669408 
2898.723 151647968 153617312 155578336 157536416 159499984 161478528 
2901.616 163479312 165506848 167563216 169650560 171772816 173937856 
2904.509 176155488 178437232 180792448 183226608 185741104 188334992 
2907.402 191007056 193757488 196589120 199506032 202512112 205609456 
2910.295 208798192 212076672 215442848 218893744 222425392 226030848 
2913.188 229697712 233407776 237137856 240859504 244544032 248160496 
2916.081 251675152 255051456 258244608 261202448 263871104 266193712 
2918.974 268118448 269602432 270608320 271106240 271071200 270482624 
2921.867 269328512 267608192 265337056 262544240 259273504 255577408 
2924.760 251509808 247127376 242485248 237634768 232628080 227511904 
2927.654 222326672 217107888 211881792 206670512 201493584 196368448 
2930.547 191313024 186342736 181468688 176696608 172027952 167461904 
2933.440 162999536 158646112 154411664 150309296 146351152 142545808 
2936.333 138897888 135407424 132074032 128899160 125887368 123047816 
2939.226 120391232 117927440 115665360 113611568 111771152 110149560 
2942.119 108752072 107583824 106648760 105946584 105472072 105214304 
2945.012 105158408 105285952 105577944 106016112 106581752 107258024 
2947.905 108026904 108868752 109763384 110687272 111614144 112516776 
2950.798 113363296 114119672 114752976 115229536 115521288 115607848 
2953.691 115477112 115126560 114561760 113794840 112841088 111719344 
2956.584 110449248 109049008 107535048 105919400 104208048 102402944 
2959.477 100503016 98507232 96418376 94243432 91993072 89679640 87312912 
2962.853 84899744 82443224 79946192 77412896 74852528 72278000 69705696 
2966.228 67151088 64627304 62144172 59708840 57327808 55008792 52760008 
2969.603 50589556 48503248 46502280 44583192 42740168 40967236 39261644 
2972.978 37624900 36062876 34583524 33192300 31891092 30675302 29536418 
2976.354 28462668 27442992 26469296 25537276 24646072 23796872 22991388 
2979.729 22229764 21511010 20831820 20188710 19577156 18993082 18433922 
2983.104 17897750 17384344 16894556 16430544 15994355 15587486 15209925 
2986.479 14858682 14528964 14213703 13906369 13602090 13299527 13000794 
2989.854 12710317 12433605 12173698 11930328 11699348 11473797 11246324 
2993.230 11012104 10770811 10526833 10287912 10062585 9857303 9674209 
2996.605 9510429 9359608 9214628 9068951 8919637 8767264 8614843 8466765 
3000.462 8326743 8196930 8077046 7965632 7859913 7757089 7654390 7549523 
3004.320 7440367 7325645 7204687 7078442 6949001 6819128 6692624 6572717 
3008.177 6461923 6361547 6272590 6194507 6126654 6067278 6014159 5964474 
3012.035 5914928 5863608 5809540 5754237 5700351 5651070 5608072 5570783 
3015.892 5535914 5498631 5453937 5399786 5336887 5269570 5203940 5145294 
3019.750 5096076 5055479 5019478 4982106 4938503 4884986 4820487 4745779 
3023.607 4661875 4570519 4473559 4373875 4275854 4184881 4106972 4045765 
3027.464 4001922 3971892 3950058 3929361 3905088 3876637 3847386 3822950 
3031.322 3808576 3806337 3813189 3822114 3824287 3812855 3784076 3740126 
3035.179 3686455 3631622 3583578 3547565 3526587 3520207 3526153 3540283 
3039.037 3558422 3575360 3586184 3586819 3574692 3549536 3513560 3470772 
3042.894 3425885 3381804 3339330 3296960 3251290 3199049 3139538 3074730 
3046.751 3009931 2951714 2906614 2878695 2868489 2872925 2886000 2901844 
3050.609 2914186 2919122 2914853 2901377 2880663 2855314 2829000 2804855 
3054.466 2785746 2773508 2767806 2766672 2766205 2762470 2751500 2732027 
3058.324 2704720 2673114 2641777 2615542 2597342 2588542 2587142 2590309 
3062.181 2594675 2597709 2598475 2597408 2595475 2592509 2587009 2575343 
3066.039 2553111 2516884 2465697 2402255 2333093 2267373 2213318 2177518 
3069.896 2162034 2164065 2177718 2195668 2211586 2222243 2227539 2230003 
3073.753 2232401 2235665 2237730 2234533 2220378 2191305 2147282 2092876 
3077.611 2037046 1989877 1960253 1952132 1962816 1983752 2002925 2008584 
3081.468 1993006 1954395 1897417 1831596 1767648 1714687 1678064 1658306 
3085.326 1652020 1653683 1658306 1661765 1662031 1659204 1654016 1647330 
3089.183 1640579 1634725 1631532 1632530 1639215 1652020 1669648 1688641 
3093.041 1704874 1713323 1711094 1697522 1675502 1649991 1626876 1611511 
3096.898 1606289 1611078 1622985 1637951 1651654 1661000 1664393 1662098 
3100.755 1655147 1645468 1634592 1623550 1613140 1603795 1596313 1591889 
3104.613 1591590 1596745 1607853 1624215 1643572 1662397 1676168 1680858 
3108.470 1673640 1653949 1623816 1587566 1550089 1516672 1490904 1474845 
3112.328 1468429 1470191 1477505 1487546 1496290 1500313 1495824 1480231 
3116.185 1452737 1414706 1370762 1326856 1289601 1263414 1249590 1245669 
3120.042 1246633 1246400 1241017 1229620 1214800 1202208 1197024 1203105 
3123.900 1220150 1244407 1269894 1291262 1305054 1311202 1313030 1315523 
3127.757 1323134 1338422 1360491 1386185 1410584 1429067 1439239 1440935 
3131.615 1437477 1432857 1431992 1438076 1451773 1471188 1492234 1510354 
3135.472 1520861 1521293 1510953 1490870 1463275 1430496 1394761 1357733 
3139.330 1321638 1288836 1262617 1247098 1245669 1260988 1292558 1337790 
3143.187 1390972 1444691 1491934 1526746 1545667 1548426 1537586 1517436 
3147.044 1493763 1472119 1457059 1450875 1453801 1463375 1475045 1483722 
3150.902 1484620 1474546 1452770 1420989 1382761 1342610 1304788 1273217 
3154.759 1250488 1238392 1238027 1249557 1272386 1304722 1343673 1385221 
3158.617 1424845 1458189 1482027 1494395 1494661 1483223 1461081 1429898 
3162.474 1391670 1349024 1305253 1264378 1230019 1205431 1192174 1190246 
3166.332 1198021 1212740 1231315 1250953 1269661 1285978 1299305 1309241 
3170.189 1315656 1318447 1317583 1312665 1303691 1290465 1273616 1254309 
3174.046 1234637 1217857 1206560 1202939 1207092 1217791 1231746 1245802 
3177.904 1257964 1268100 1278202 1291129 1309009 1331741 1356403 1377908 
3181.761 1391105 1392733 1382828 1364646 1343474 1324862 1311535 1303858 
3185.619 1299969 1297876 1296779 1298241 1305320 1320408 1343374 1369964 
3189.476 1392168 1400778 1388113 1351949 1296413 1231946 1171375 1127024 
3193.333 1106727 1111245 1134598 1166325 1194333 1208222 1201975 1175295 
3197.191 1132738 1082578 1033420 993632 967763 957634 961420 975766 996289 
3201.531 1019105 1041557 1061917 1079322 1092742 1100316 1099851 1089354 
3205.388 1067863 1036608 999079 961088 929044 908590 903112 912807 933892 
3209.728 959892 983371 996356 993201 971150 931401 878210 819348 764710 
3214.067 723487 703408 707623 734440 777290 825921 869943 899858 910948 
3218.407 903477 882958 857659 836511 826718 830635 846504 868283 888702 
3222.746 900356 898795 883223 856099 822568 788277 757806 733378 713962 
3227.086 696870 678883 657379 632790 607672 587167 576318 578673 595097 
3231.426 622769 656251 689005 715655 733212 742173 745028 745592 747849 
3235.765 753359 762254 772544 782103 788709 791531 790867 787116 780842 
3240.105 771913 759565 743268 722857 699426 675332 654061 638498 630468 
3244.444 630567 636872 646428 655554 661229 661096 654359 640986 622006 
3248.784 599012 573298 547122 522506 501872 487410 481240 484457 497461 
3253.124 519122 547354 578209 607274 629572 640854 638498 622305 594997 
3257.463 561852 529605 504460 490826 489400 497859 510962 523501 531331 
3261.803 533620 531994 530634 533222 541615 554951 569383 579967 582290 
3266.142 574062 555516 530037 501541 474075 450790 433344 422432 418518 
3270.482 422299 434438 455865 485486 521776 561454 599775 632094 654592 
3274.822 664846 662589 649515 629439 607539 589058 578740 579569 591646 
3279.161 611919 635047 655089 666074 664879 651406 628045 598780 568255 
3283.501 539624 514312 493082 475634 462499 454837 454074 461039 475335 
3287.840 495105 517298 538762 556942 570677 579934 584546 584712 579470 
3292.180 567691 548615 523137 493613 464024 438584 421172 414140 418087 
3296.520 431785 453112 479482 507943 535046 557771 572701 578076 573431 
3300.859 560857 544136 528345 518094 515142 518758 525260 530169 529406 
3305.199 521610 508009 492883 481406 477226 482434 495404 513019 530767 
3309.538 545330 555449 561786 566597 572336 580996 592210 603989 613479 
3313.878 617659 614739 604752 590020 574360 561454 554686 554719 561089 
3318.218 570810 580730 588560 593869 597486 601268 606610 613412 618920 
3322.557 619153 610227 589158 555947 513483 466811 421636 382336 351760 
3326.897 330704 318767 315152 319794 332594 353584 381739 414406 447473 
3331.236 476861 499418 513947 521942 527449 534748 547984 569052 597353 
3335.576 630302 663452 693020 715522 729262 733577 729395 717978 700886 
3339.916 679845 656782 633985 613445 597652 588560 587499 594466 607672 
3344.255 624263 640223 651373 654359 647524 631264 607440 579038 549477 
3348.595 520881 494740 471720 451885 435632 423924 417623 417424 423228 
3352.934 433476 445914 458154 468370 476032 482036 488172 495570 504626 
3357.274 513582 519388 518592 508076 487012 456993 422067 387775 360316 
3361.614 344896 344299 359155 387244 424488 465683 505853 541184 569383 
3365.953 590584 606477 619252 630965 642546 653231 661527 664978 662058 
3370.293 652236 636606 617062 595727 574062 552198 529340 504294 476098 
3374.632 445483 414572 386713 365622 354679 354679 365025 382900 404423 
3378.972 425848 444057 457125 464356 466180 463162 455666 444621 430790 
3383.312 415732 401471 390494 384060 383397 387211 393280 398984 402367 
3387.651 403329 404589 410293 424720 450823 488338 533089 577446 612516 
3391.991 630235 626287 600936 559397 509502 458950 413610 376300 346256 
3396.330 321353 298408 276326 256334 240951 234685 240918 260810 292937 
3400.670 332992 375173 413875 444886 467242 482434 493447 503332 514014 
3405.010 524961 533520 536207 530004 514080 490063 461039 431321 404489 
3409.349 383198 368507 360979 361012 369601 386945 412018 441005 467607 
3413.689 483363 480775 456130 411222 353982 296418 252190 231370 238166 
3418.028 269198 315782 365622 406844 432216 439413 431619 415500 398553 
3422.368 386481 382104 385884 396298 410990 427341 443394 457424 468536 
3426.708 475733 479316 479780 478122 475634 473677 472682 472781 473378 
3431.047 473179 471289 466446 457789 445218 428468 407905 384093 357829 
3435.387 330206 302751 277519 257063 244598 243305 255273 281399 319363 
3439.726 364295 409365 446279 468038 470592 454472 424389 388206 354513 
3444.066 329842 317208 315782 321684 329145 332959 330007 319960 305039 
3448.406 288295 273707 262998 257395 256566 258920 263329 268170 273044 
3452.745 277950 283620 291246 301823 315749 332594 350401 367545 381042 
3457.085 389433 391655 387542 377826 363897 346554 327156 306365 285344 
3461.424 265319 247217 232464 221491 214529 211678 212706 217480 225701 
3465.764 236575 248112 257295 260047 252786 233392 202463 164044 123673 
3470.104 88145 63522 52520 55933 71310 95436 124701 156387 188374 219004 
3474.925 245957 266446 277685 278216 268999 253748 237967 228519 230740 
3479.265 246620 274303 307990 339889 361178 366617 354281 327388 291379 
3483.604 253483 219767 193612 175745 165171 159370 156023 155028 157348 
3487.944 165502 182374 209457 244531 283521 318866 342973 349903 336772 
3492.284 305139 260544 211546 166364 132589 114029 111410 121850 140179 
3496.623 161061 178861 190131 193114 188639 178529 166696 157547 154697 
3500.963 160928 177004 200938 228850 255870 277519 290550 293467 286438 
3505.302 270590 247283 218209 185093 150719 117476 88112 64351 45859 31445 
3510.124 19185 8581 1689 2418 16269 46522 93315 151183 210684 260345 289887 
3515.428 293898 273242 234420 187446 142798 108361 87780 81351 86422 100606 
3520.250 122314 151448 188043 230508 275961 318269 351097 368706 369435 
3524.590 354811 330472 303978 282891 273740 280338 303514 339955 383397 
3528.929 425085 455666 467109 455168 419646 365489 300530 234818 176640 
3533.269 131429 100308 81086 69587 61633 55668 52686 56165 70150 97391 
3538.091 137892 188739 244399 298706 345493 379550 397458 398089 382170 
3542.430 352059 311638 265882 219137 174982 134810 97491 60374 21570 -18389 
3547.252 -55794 -84549 -98297 -93030 -68648 -28991 18224 64649 101700 124568 
3552.074 132920 131462 126292 123209 124436 128910 133882 136533 136235 
3556.413 135042 137030 146212 165370 194043 227789 260047 283587 293368 
3560.753 287267 266943 236840 201800 165768 130965 97888 66173 35985 9476 
3565.575 -8449 -10470 10205 55271 118901 188838 251294 295391 316445 314124 
3570.396 292274 256997 215988 176209 142930 119232 104981 98452 97093 99711 
3575.218 106141 117244 133418 153503 174784 192385 201369 198551 183700 
3579.558 160431 134478 113333 103456 108494 129440 164110 208927 258058 
3583.897 305636 345460 370596 375173 354745 310311 249206 186916 141041 
3588.237 123541 136135 171071 216916 261572 296684 317440 322712 314522 
3592.577 297048 276359 257494 244962 240686 244034 252090 260843 266877 
3596.916 267507 262302 252786 242310 235215 235613 245559 264258 287698 
3601.256 310278 327189 336275 338861 338960 341779 351230 368905 392815 
3605.595 417955 436462 440010 421868 379285 315550 238696 159370 87747 30451 
3610.417 -8117 -25379 -19681 9509 60540 126822 197258 259152 300729 315650 
3615.239 303017 266612 212872 151084 93083 51493 39331 65179 130004 225204 
3620.061 335346 444389 538828 611023 658209 680675 681505 665476 638962 
3624.400 608833 582522 565966 562781 573464 594433 617825 631297 622272 
3628.740 584811 527217 466346 417557 388239 378190 384458 404191 434206 
3633.080 471289 511095 548482 576782 590419 585608 561819 522539 475203 
3637.419 430591 400045 392418 411122 452581 507081 562151 605814 629472 
3641.759 630401 611786 581128 545928 511857 480610 449795 414804 369634 
3646.098 309748 233923 146112 55469 -24750 -81535 -105618 -93229 -46650 
3650.438 26408 115454 210054 301292 382734 450624 501474 532392 540951 
3654.778 525956 489533 438551 384226 337236 304641 287698 284051 290682 
3659.117 305006 325232 349870 376632 402400 423327 435400 436826 427274 
3663.457 409033 385951 362869 343735 331533 327852 332959 345725 364063 
3667.796 383695 397790 397525 374874 328084 265551 203457 157547 135638 
3672.136 139152 164210 204551 251493 293401 316877 310577 274436 222784 
3676.476 174088 139350 121983 120425 132357 155923 188971 228983 272049 
3680.815 314423 353617 389201 422498 456827 495702 541747 595362 654525 
3685.155 715356 773241 823863 863901 891491 906432 910715 906863 897367 
3689.494 883190 863469 837640 805771 769490 731984 697501 669923 653298 
3693.834 650709 664414 693983 736033 783697 826950 855136 860282 839234 
3698.174 794020 730789 658076 584446 517032 460608 417026 385685 364793 
3702.513 353253 350898 358094 375139 400908 432647 466346 497427 521345 
3706.853 535643 540056 536871 530667 528179 534980 554819 586503 623168 
3711.192 653397 665509 653563 619285 571042 519454 474075 440674 421603 
3715.532 416528 423427 439015 459547 481605 501740 517364 526819 529042 
3719.872 524497 514279 500546 485851 472217 460708 451321 443493 437490 
3724.211 435566 442299 462631 500081 552696 612815 668264 706826 720732 
3728.551 707490 669989 614076 548316 481771 422929 378423 351197 339226 
3732.890 335843 333423 325431 308421 283388 256500 236508 230740 241614 
3737.230 266114 298109 330438 356867 373017 377129 370895 358227 344565 
3741.570 333854 327620 323077 314124 291975 252919 203954 162552 144355 
3745.909 155592 193711 253151 326924 409099 493380 572602 638962 686018 
3750.249 708619 705267 679248 637900 591547 550539 522971 511924 516833 
3754.588 533487 556212 578806 595760 603757 601799 591580 575853 557307 
3758.928 536904 514180 489068 462830 439181 422366 415633 420442 435865 
3763.268 458552 483097 504128 517132 521644 521478 523236 533321 554188 
3767.607 584048 616432 642015 650145 634018 594168 539027 481207 432216 
3771.947 399515 385188 388139 405186 432282 465418 500313 534051 562980 
3776.286 584446 595827 595561 583020 559663 528677 494442 460674 428535 
3780.626 396696 362306 323641 280835 238498 203722 185523 191689 224209 
3784.966 278415 342774 404158 451288 478686 486812 481372 470227 460708 
3789.305 458253 464389 477326 493215 508109 518890 524231 524497 520350 
3793.645 512587 501076 485287 465285 442266 419878 402632 394540 397127 
3797.984 409298 427440 447108 463726 472814 470758 456595 433344 406645 
3802.324 382933 365522 355242 351992 356337 369800 393943 428767 470459 
3806.664 509933 536075 541117 524497 492518 454571 420939 399448 395767 
3811.003 411753 445350 490495 539558 584712 619319 638531 639891 623765 
3815.343 594665 560525 530800 510995 501607 499584 500678 501110 498754 
3819.682 493148 486481 482600 485486 495702 510696 525790 537335 543838 
3824.022 545131 542643 538695 536240 538364 547188 562980 583219 604520 
3828.362 621873 630733 626751 606942 570246 519487 461470 405650 362074 
3832.701 338131 336639 356337 393081 441868 497295 554354 607042 648785 
3837.041 671980 669392 638166 581958 513118 448601 403428 387907 403030 
3841.380 442067 492584 540520 573497 584679 574858 552430 527549 509436 
3845.720 502138 504792 513118 521644 526089 525724 522208 519421 521577 
3850.060 530966 546359 562383 569118 554852 509701 435400 349704 278083 
3854.399 235215 220165 224806 240918 263561 290914 323044 360614 403096 
3858.739 449497 497328 543307 584546 618058 642214 657313 664613 666206 
3863.078 664514 660532 654094 644039 629339 609497 584645 554951 520018 
3867.418 479117 431354 377229 320557 268435 230408 212341 213402 227823 
3871.758 249537 274569 300961 328681 357862 388139 417855 445350 469133 
3876.097 489168 506517 522573 538928 557075 577313 598548 617560 630766 
3880.437 634549 627481 610559 586205 556179 521445 481737 437092 389234 
3884.776 343039 305537 283620 279807 290914 310676 332959 353717 372254 
3889.116 389864 408768 431951 460741 493314 524994 550572 566298 571507 
3893.456 568720 560857 550904 540321 529207 517165 503067 486713 468138 
3897.795 448369 428170 407342 384591 357961 326426 291644 258224 233127 
3902.135 223911 236409 271618 324835 385718 443327 488372 517596 533022 
3906.474 539425 541681 544003 548416 555449 564739 575720 587432 599543 
3910.814 611388 622139 630633 635644 636175 632193 624263 613711 602031 
3915.154 590949 581394 574526 570777 570312 574095 582389 595030 611090 
3919.493 628709 644736 655786 659636 655056 643011 625656 606876 589821 
3923.833 577512 570744 568620 568355 566663 561653 552430 540122 526653 
3928.172 514611 506417 504228 508971 520682 538397 559961 582887 603856 
3932.512 620015 629605 632326 629273 622603 615038 608336 603226 599311 
3936.852 594997 588096 577446 562781 545961 529539 516435 508739 506882 
3941.191 510033 516037 522373 527549 531994 536340 542743 551966 563611 
3945.531 576119 587764 596324 600605 600638 597220 591845 585939 580763 
3949.870 577313 576782 580763 590485 607307 630169 657080 683861 705897 
3954.210 719206 722193 715621 703408 690166 680376 676129 676527 679115 
3958.550 680343 678020 672279 665974 663186 668297 683595 708154 738190 
3962.889 768129 791962 805838 807597 797672 778618 753757 726906 702612 
3967.229 684226 674536 674469 682500 695244 706992 712601 708088 692689 
3971.568 669392 643973 623898 614773 619518 637038 662523 689768 712999 
3975.908 728997 736564 737161 733046 726175 717812 709150 701716 697667 
3980.248 700023 710610 729262 752728 774071 786452 783398 762652 727271 
3984.587 685255 646694 621442 616564 633719 670089 719803 775929 831764 
3988.927 881895 922635 951225 965637 965206 950594 924428 891225 856663 
3993.266 825755 802153 786186 775597 765706 752429 733046 707689 679149 
3997.606 652236 632060 621774 622537 632890 649150 666571 
##END=
