##TITLE=staro_1 Sep 02 12:07:16 2026 (GMT+02:00)
##JCAMP-DX=5.01  $$ Nicolet v. 970
##DATATYPE=INFRARED SPECTRUM
##ORIGIN=Vojna akademija
##OWNER=Nicolet
##LONGDATE=2026/09/02
##TIME=12:07:43
##SPECTROMETER/DATA SYSTEM=Nicolet iS20
##DATA PROCESSING=
Ratio against background
%Transmittance->Absorbance
Truncated
ElementMultiply or ElementDivide
##COMMENTS=
Number of sample scans: 8
Collection length: 11,90 sec
Sample gain: 8,0
Background collected on: Wed Sep 02 11:53:24 2026 (GMT+02:00);
Number of background scans: 8
Background gain: 8,0
Sample spacing:  1,000
Number of scan points: 12415
Resolution points: 8286
Number of FFT points: 65536
Apodization: N-B strong;
Phase correction: Mertz;
Laser frequency: 15798,00 cm-1
Number of rejected sample scans: 0
Number of rejected background scans: 0
Bench serial number: BER2010005;
##RESOLUTION= 4,000
##XUNITS=1/CM
##YUNITS=ABSORBANCE
##FIRSTX=400.156891
##LASTX=4000.123047
##FIRSTY=0.018349
##MAXX=4000.123047
##MINX=400.156891
##MAXY=0.160138
##MINY=-0.001002
##XFACTOR=1.000000
##YFACTOR=1.000000E-009
##NPOINTS=7468
##DELTAX=0.482117
##ZPD=6100
##XYDATA=(X++(Y..Y))
400.157 18349162 16555097 15128126 14097863 13398889 12914767 12534372 
403.532 12174891 11805800 11454032 11199164 11142048 11362324 11876454 
406.907 12614422 13421750 14094098 14442530 14335807 13764754 12849781 
410.281 11818568 10915020 10315225 10090935 10189090 10462474 10714634 
413.656 10784838 10579420 10096090 9393702 8567461 7720357 6949843 6371836 
417.513 6112809 6284927 6911395 7856675 8851763 9639754 10113860 10295512 
421.370 10264671 10105654 9878285 9613873 9321861 9000648 8651447 8291990 
425.227 7960502 7705180 7575653 7609540 7819732 8193216 8686433 9233953 
429.084 9751667 10153339 10367719 10350005 10105348 9696063 9247898 8908341 
432.941 8819604 9075244 9686982 10574836 11567161 12449427 12994205 13053852 
436.798 12603882 11734817 10596905 9335639 8057097 6803039 5574039 4354932 
440.655 3144244 1981788 957369 190827 -193393 -120624 403196 1288039 2396458 
444.994 3578233 4697645 5664028 6425907 6977452 7353110 7615070 7832586 
448.851 8058616 8322116 8622414 8936988 9227353 9454043 9585824 9608046 
452.708 9525906 9364484 9158754 8945274 8760603 8635189 8588346 8621602 
456.565 8709723 8797998 8816967 8723246 8532180 8326068 8211855 8287227 
460.421 8599262 9128130 9783928 10425004 10904080 11107919 11010371 10672660 
464.278 10212632 9744111 9345355 9034714 8780450 8524645 8223301 7874151 
468.135 7520462 7230359 7062311 7044496 7165881 7387620 7663495 7966272 
471.992 8295671 8670241 9101500 9567296 10002126 10318584 10421440 10241942 
475.849 9753734 8980858 8001911 6942234 5954497 5168966 4675875 4503421 
479.706 4622725 4960824 5419211 5899242 6312460 6607603 6776014 6848210 
483.563 6872547 6894226 6938665 7002066 7063893 7105015 7125763 7150823 
487.420 7220050 7367803 7605157 7908298 8217764 8453657 8545428 8450447 
491.277 8168298 7738065 7227899 6713924 6256186 5893902 5641537 5496115 
495.134 5446287 5476250 5566118 5689339 5819346 5934678 6026388 6104139 
498.991 6190944 6317100 6504704 6761744 7072414 7403663 7711824 7961076 
502.848 8133692 8230055 8262068 8245251 8191596 8108508 7999211 7864435 
506.705 7701672 7505561 7269374 6990516 6677012 6352671 6055384 5832947 
510.562 5722576 5739900 5864213 6043758 6207212 6293197 6272220 6155152 
514.419 5985301 5820454 5714854 5698102 5770757 5912073 6096477 6305132 
518.276 6527676 6753230 6955702 7090870 7109966 6975365 6687913 6291684 
522.132 5871467 5521048 5322094 5315453 5489907 5785162 6116606 6412220 
525.989 6631489 6779042 6888907 6998127 7121149 7242656 7323354 7321096 
529.846 7204519 6966947 6629033 6235849 5844398 5508397 5278022 5189353 
533.703 5261554 5493263 5854977 6288827 6714261 7052914 7243667 7261389 
537.560 7122260 6877462 6595895 6340096 6159453 6079442 6108709 6247042 
541.417 6488863 6820104 7207383 7597873 7914912 8075898 8020846 7729801 
545.274 7244138 6658405 6106088 5709684 5545445 5624284 5894876 6263985 
549.131 6624928 6893553 7016849 6984489 6821686 6577999 6310276 6070839 
552.988 5902232 5827238 5845305 5930312 6037811 6114254 6112137 6006701 
556.845 5800474 5522692 5216817 4933242 4713421 4587463 4577886 4700526 
560.702 4964946 5367312 5881374 6449447 6984927 7396787 7604853 7570865 
564.559 7310448 6894293 6425099 6004316 5709516 5568534 5562695 5640161 
568.416 5746548 5838756 5900082 5937231 5968975 6013185 6077795 6160125 
572.273 6250001 6334784 6400922 6436970 6431220 6374526 6263917 6107163 
576.130 5924736 5744131 5592431 5483934 5415688 5370164 5325784 5268731 
579.986 5201392 5141740 5116862 5147574 5236737 5365568 5501215 5611428 
583.843 5675140 5692294 5682088 5674938 5696859 5759777 5858537 5975459 
587.700 6088346 6177870 6234101 6253967 6240219 6197162 6130317 6046951 
591.557 5955068 5864044 5778748 5697296 5609381 5502457 5368117 5211384 
595.414 5052563 4926036 4868467 4903986 5036305 5246463 5500108 5757662 
599.271 5989433 6179921 6327657 6438248 6513483 6545739 6519873 6418542 
603.128 6233328 5972536 5662349 5340778 5047065 4814757 4662143 4594897 
606.985 4607321 4687162 4817036 4976643 5146132 5307303 5448803 5568736 
610.842 5675207 5781804 5901090 6037879 6186004 6330313 6454491 6550684 
614.699 6623516 6690437 6771235 6879280 7010080 7141459 7239590 7275001 
618.556 7234435 7126470 6975297 6810377 6653089 6508033 6364809 6207851 
622.413 6027934 5830461 5636536 5474673 5368990 5326086 5330379 5346816 
626.270 5336082 5265478 5122327 4917927 4684080 4463951 4298977 4223490 
630.127 4254339 4389941 4611272 4888471 5188347 5479303 5740438 5959334 
633.984 6131661 6255345 6325707 6332767 6263884 6110322 5876303 5584846 
637.840 5279632 5012138 4831610 4770033 4831476 4992731 5211083 5440549 
641.697 5641503 5790299 5881005 5918925 5915734 5885203 5845506 5816055 
645.554 5820185 5877143 5992894 6150480 6308527 6410774 6398635 6238404 
649.411 5935317 5540344 5132452 4797738 4605847 4586391 4727088 4979056 
653.268 5279866 5566219 5792482 5936895 5995481 5978247 5902769 5792952 
657.125 5675408 5578301 5527289 5536014 5601191 5698370 5790836 5836237 
660.982 5803529 5683465 5489974 5254545 5013847 4799480 4625605 4490498 
664.839 4381473 4284789 4192642 4109815 4054728 4058908 4148350 4318420 
668.696 4523108 4710775 4857376 4971548 5078241 5203806 5368889 5582127 
672.553 5837581 6112943 6376039 6588057 6716717 6742326 6662846 6494984 
676.410 6272388 6039357 5837446 5697162 5630796 5631534 5678228 5741814 
680.267 5795705 5817835 5795605 5723852 5603742 5440751 5246530 5042305 
684.124 4854360 4715129 4652798 4683645 4807956 5008048 5253572 5504571 
687.981 5723751 5883155 5967799 5976500 5918925 5814006 5685513 5563836 
691.838 5483666 5476250 5565380 5759005 6044834 6391809 6757941 7101917 
695.694 7391867 7615812 7780938 7906510 8014163 8120560 8233668 8353697 
699.551 8477611 8602438 8725916 8843748 8947473 9024497 9061677 9055080 
703.408 9016749 8978964 8985527 9084143 9308320 9665976 10134753 10669536 
707.265 11217490 11731005 12184774 12577550 12928455 13265774 13619663 
710.640 14014630 14465927 14981928 15564991 16212257 16916398 17665886 
714.015 18448476 19255752 20088546 20960666 21896392 22919916 24046496 
717.390 25270394 26563510 27873420 29135094 30285038 31263988 32026972 
720.765 32542064 32788980 32761394 32470506 31948328 31243124 30418286 
724.139 29540534 28665258 27834064 27066446 26361266 25704334 25077562 
727.514 24468414 23873704 23299558 22758292 22260700 21810780 21402256 
730.889 21019192 20642026 20251228 19834492 19391098 18932370 18479212 
734.264 18058300 17696118 17411350 17212080 17091956 17031372 16999774 
737.639 16962082 16889492 16762570 16579468 16353125 16108640 15872333 
741.013 15663704 15489134 15339519 15194793 15033239 14842601 14626036 
744.388 14405127 14211854 14081433 14037764 14084925 14204733 14362623 
747.763 14514985 14618669 14643823 14576692 14421054 14194873 13925186 
751.138 13641579 13370800 13136012 12951838 12823297 12744880 12702471 
754.513 12675075 12640006 12579597 12482809 12349362 12187124 12010062 
757.888 11832937 11667046 11520749 11397733 11299509 11227180 11180771 
761.262 11159998 11162548 11184511 11220585 11266353 11319165 11380114 
764.637 11452365 11539701 11643630 11760962 11883060 11996029 12086269 
768.012 12141839 12156763 12132196 12075979 12000252 11917932 11842027 
771.387 11782683 11745336 11730971 11734136 11744008 11744588 11719023 
774.762 11651117 11530174 11354774 11132802 10880229 10615715 10358081 
778.136 10120542 9908894 9722864 9558286 9410429 9277820 9162544 9070237 
781.993 9006635 8973721 8966482 8972368 8975548 8958771 8910607 8828159 
785.850 8718073 8592875 8467475 8353798 8257172 8175827 8103849 8033503 
789.707 7958814 7877121 7788021 7692802 7593051 7490560 7389440 7296498 
793.564 7221465 7174942 7163826 7186968 7233998 7287333 7326690 7337912 
797.421 7318670 7281369 7249563 7251180 7311459 7442693 7642351 7892946 
801.278 8167892 8434906 8664123 8833705 8931914 8958635 8924338 8846723 
805.135 8746708 8644349 8554923 8485179 8433825 8393624 8355791 8314044 
808.992 8267336 8219925 8180250 8156447 8155063 8179845 8232588 8314145 
812.849 8424568 8561479 8717667 8878816 9026019 9136589 9191817 9181766 
816.706 9107354 8979573 8815411 8631607 8440075 8248391 8062531 7891089 
820.563 7748791 7653749 7620533 7652771 7737559 7847363 7944337 7994857 
824.420 7979367 7897366 7766837 7617026 7478424 7370937 7304416 7277056 
828.277 7282481 7313986 7367197 7439626 7527845 7625894 7725383 7817337 
832.133 7895949 7960535 8014231 8060978 8101891 8133489 8149391 8144901 
835.990 8122011 8091730 8072894 8083965 8135549 8225834 8339612 8453319 
839.847 8544143 8599566 8620318 8618932 8612578 8615755 8632722 8657464 
843.704 8676663 8677069 8651041 8599127 8529308 8453352 8382274 8323299 
847.561 8280237 8254065 8244812 8252511 8277063 8317894 8373120 8439366 
851.418 8512245 8586115 8655267 8711650 8746167 8749176 8713104 8636034 
855.275 8524172 8393422 8264229 8157123 8086228 8054564 8054970 8073704 
859.132 8098042 8121167 8144698 8175321 8220229 8278413 8338058 8376701 
862.989 8369269 8297157 8157123 7964720 7753581 7567156 7444480 7413605 
866.846 7481357 7633887 7839502 8060775 8264567 8428792 8548265 8631607 
870.703 8696506 8760299 8833976 8918284 9004470 9078086 9125592 9140041 
874.560 9122106 9079676 9022738 8959752 8893730 8823426 8746167 8661926 
878.417 8575842 8497647 8438386 8406292 8404333 8430041 8478220 8546069 
882.274 8634615 8748568 8891938 9063064 9250199 9432371 9582403 9675192 
886.131 9697926 9653678 9561707 9450385 9351043 9286283 9266752 9289633 
889.987 9342275 9407246 9466979 9508532 9522621 9504332 9451638 9365431 
893.844 9249116 9109790 8958533 8808446 8673418 8566210 8494167 8457948 
897.701 8450008 8455515 8455717 8432744 8376971 8290470 8188252 8094667 
901.558 8037451 8036067 8095206 8202198 8332620 8456900 8552253 8611057 
905.415 8641949 8664900 8700022 8759825 8842159 8931914 9007548 9051528 
909.272 9057651 9032548 8990837 8948217 8913515 8885039 8853014 8806451 
913.129 8739878 8657565 8572327 8501465 8460312 8456596 8489538 8550597 
916.986 8628970 8712766 8792182 8860115 8910404 8939288 8946289 8937529 
920.843 8925759 8929513 8968478 9054809 9188568 9354360 9526177 9671838 
924.700 9765967 9798263 9777286 9727710 9683019 9677665 9734656 9861100 
928.557 10046172 10265757 10486099 10672897 10800023 10851657 10825635 
931.932 10733415 10595378 10434813 10272203 10121899 9989615 9875540 9777523 
935.789 9694843 9629828 9586671 9568753 9574206 9595173 9618819 9630065 
939.646 9618920 9583961 9535084 9488889 9466031 9483539 9549141 9659166 
943.502 9799517 9950931 10091919 10206492 10286759 10334023 10357878 
946.877 10373590 10399042 10447675 10526460 10631572 10749514 10857908 
950.252 10931738 10951344 10905948 10799445 10649161 10483519 10333650 
953.627 10227388 10183934 10208392 10291644 10412107 10542686 10653881 
957.002 10722140 10736574 10698944 10624781 10538070 10465970 10428941 
960.377 10436475 10485725 10563768 10652896 10737932 10811470 10874725 
963.751 10935510 11002929 11083513 11177405 11278764 11378107 11465836 
967.126 11534802 11580705 11602246 11600340 11577506 11538646 11492033 
970.501 11448180 11416816 11404366 11409231 11421136 11423109 11398311 
973.876 11335932 11237313 11115805 10994297 10896367 10838272 10824752 
977.251 10848090 10892052 10937140 10968301 10976320 10958344 10915836 
980.625 10851963 10771151 10679078 10585667 10504700 10451511 10440752 
984.000 10480735 10570559 10699691 10851657 11007958 11152927 11277064 
987.375 11375352 11445050 11483085 11484514 11445050 11363992 11247276 
990.750 11108599 10966431 10840820 10746050 10688451 10665189 10667226 
994.125 10683900 10707502 10736676 10774853 10828421 10901939 10995758 
997.500 11104621 11218816 11326137 11415388 11477539 11507241 11503431 
1000.874 11470089 11415421 11351237 11292230 11252479 11242618 11267407 
1004.249 11323654 11400386 11480908 11548582 11590268 11599115 11576349 
1007.624 11529528 11469374 11405420 11344503 11288286 11234559 11179683 
1010.999 11121278 11060468 11002487 10955592 10928272 10926403 10950019 
1014.374 10991782 11037424 11069203 11068557 11022538 10927490 10791191 
1017.748 10629943 10466208 10323199 10216770 10154255 10132582 10142045 
1021.123 10170129 10207374 10249608 10298158 10355366 10421033 10488644 
1024.498 10545063 10573003 10556028 10485318 10363816 10208289 10046715 
1027.873 9916861 9857981 9903437 10078183 10389878 10825873 11349196 
1031.249 11903492 12415910 12810056 13027356 13034629 12838552 12481650 
1034.624 12037621 11588056 11201408 10921782 10757802 10688926 10676055 
1037.999 10681455 10676871 10652217 10613135 10574260 10549578 10545436 
1041.374 10559423 10582544 10604035 10615409 10612999 10597041 10570728 
1044.750 10538036 10504259 10476866 10464918 10479072 10528157 10615376 
1048.125 10734944 10872075 11006055 11113834 11178425 11193418 11164316 
1051.500 11106695 11042930 10995520 10981927 11011424 11083513 11188794 
1054.875 11309166 11424198 11513944 11562908 11564915 11523097 11450595 
1058.251 11365011 11285871 11229594 11206338 11221264 11275534 11366746 
1061.626 11489482 11633692 11783568 11915003 12002466 12021099 11955394 
1065.001 11805460 11588124 11334775 11079740 10854647 10678365 10555621 
1068.376 10479479 10436917 10413261 10395987 10375897 10346781 10304470 
1071.752 10249575 10188819 10135872 10109316 10128241 10202522 10328255 
1075.127 10484673 10640570 10762489 10825261 10821423 10761504 10668992 
1078.502 10568691 10480498 10413193 10366022 10335279 10319229 10321129 
1081.877 10347155 10399517 10472148 10546794 10599826 10606174 10550494 
1085.253 10431996 10264061 10068689 9867744 9679325 9513951 9377248 9273928 
1089.110 9210160 9192257 9223360 9298198 9400136 9503655 9582031 9614347 
1092.967 9593920 9529395 9441852 9354631 9285673 9242347 9221599 9214188 
1096.825 9211684 9212732 9223393 9254059 9312517 9399492 9504570 9608893 
1100.682 9689693 9729031 9719001 9663842 9577965 9481371 9393330 9325280 
1104.540 9278869 9245630 9211582 9161393 9085225 8981941 8859642 8732880 
1108.397 8618932 8532958 8484706 8478793 8515893 8594632 8713340 8868637 
1112.255 9054098 9256259 9455024 9624273 9736791 9773524 9728218 9612755 
1116.112 9452586 9283033 9139262 9045573 9014788 9045268 9125795 9238760 
1119.969 9366989 9495053 9609943 9701077 9760647 9784843 9775659 9742111 
1123.827 9699349 9662114 9642193 9641076 9650697 9654255 9636129 9587112 
1127.684 9511884 9427867 9360827 9336011 9366786 9450622 9567737 9689828 
1131.542 9786774 9838832 9842051 9808193 9759427 9721170 9715003 9751802 
1135.399 9831442 9944286 10076658 10212428 10337823 10442822 10520620 
1138.774 10569099 10590930 10594087 10590930 10597584 10630214 10700099 
1142.150 10810688 10954673 11116417 11273902 11405692 11496796 11541232 
1145.525 11543376 11516224 11477267 11442465 11424470 11430083 11461142 
1148.900 11515884 11590710 11681239 11782683 11889360 11995620 12095638 
1152.275 12184535 12259204 12318103 12361122 12387646 12395692 12382328 
1155.651 12343668 12277915 12187261 12079353 11966021 11861267 11777848 
1159.026 11723822 11701424 11706360 11730631 11762937 11791773 11807877 
1162.401 11804132 11777474 11728554 11662452 11587851 11515067 11455018 
1165.776 11415115 11398481 11403210 11423857 11452807 11482609 11508024 
1169.151 11524934 11530004 11519660 11489482 11435865 11357461 11257205 
1172.527 11142524 11024271 10913763 10818162 10739495 10673814 10613916 
1175.902 10552430 10485487 10414483 10344440 10282008 10231289 10192007 
1179.277 10159682 10127054 10087950 10040882 9990327 9945506 9916793 9911980 
1183.135 9932082 9969951 10010874 10038237 10037933 10002736 9935675 9849339 
1186.992 9762104 9690438 9646157 9630370 9634809 9644464 9644904 9627254 
1190.849 9592260 9549107 9513510 9500810 9519539 9569972 9642770 9723474 
1194.707 9796569 9850118 9878827 9883234 9867642 9837476 9797755 9751227 
1198.564 9701043 9650019 9602727 9564315 9539386 9530885 9538811 9560623 
1202.422 9591379 9625458 9657540 9683290 9698909 9701755 9690269 9664079 
1206.279 9625696 9579016 9530987 9489059 9461323 9454821 9474157 9521944 
1210.137 9597579 9696503 9809108 9922929 10021385 10088697 10113488 10091613 
1213.994 10029421 9941608 9849813 9774609 9731471 9727133 9758139 9814463 
1217.851 9881539 9947541 10003923 10047257 10077947 10098532 10112063 
1221.227 10121593 10130309 10141672 10158868 10183833 10215447 10249371 
1224.602 10278718 10296632 10299006 10286555 10265621 10245944 10236853 
1227.977 10243740 10266775 10300262 10336262 10366938 10388148 10400772 
1231.352 10409494 10419811 10435796 10457586 10481041 10498115 10500491 
1234.728 10479853 10431113 10353466 10250219 10129190 10000804 9877810 
1238.103 9772609 9694470 9648291 9633589 9644294 9670177 9699451 9721814 
1241.960 9729641 9720459 9696266 9662623 9626238 9593649 9569498 9555440 
1245.818 9550089 9549886 9550089 9546058 9534678 9515136 9489160 9460511 
1249.675 9434097 9414458 9404910 9406670 9418285 9436536 9457191 9475106 
1253.533 9486045 9487264 9477443 9457564 9430475 9400474 9372169 9349925 
1257.390 9336045 9331238 9334691 9345186 9362350 9387744 9424143 9475275 
1261.247 9543316 9627761 9724254 9825545 9922454 10005957 10069401 10109113 
1265.105 10125155 10119932 10098429 10066654 10031354 9999617 9978359 
1268.480 9972392 9984902 10016028 10062585 10119355 10180406 10239228 
1271.855 10290185 10329544 10353805 10360592 10348071 10316481 10268064 
1275.231 10208357 10145945 10090664 10052140 10037254 10048614 10084220 
1278.606 10138009 10201505 10265045 10319535 10358624 10378782 10380614 
1281.981 10369279 10353636 10344033 10350413 10378171 10427007 10489222 
1285.356 10552905 10605869 10638975 10651266 10649229 10646377 10656190 
1288.732 10688926 10747307 10826688 10916991 11007279 11090005 11161698 
1292.107 11223135 11277472 11327974 11377154 11427225 11481146 11543614 
1295.482 11621269 11719805 11841789 11983358 12134445 12280880 12407523 
1298.857 12503100 12562952 12589010 12587612 12566840 12533690 12492528 
1302.233 12446119 12397056 12348748 12306990 12277779 12265475 12271303 
1305.608 12291959 12320216 12347146 12364532 12367088 12353350 12325329 
1308.983 12287289 12244003 12199188 12155060 12112093 12069030 12023415 
1312.358 11971981 11912074 11841926 11761677 11673547 11582236 11492884 
1315.734 11410625 11339911 11282369 11238027 11205080 11181213 11164485 
1319.109 11154253 11150581 11153811 11163602 11178153 11194744 11210350 
1322.484 11222659 11231532 11238367 11247174 11261932 11286416 11322260 
1325.859 11368583 11421850 11476485 11527520 11570700 11604968 11632024 
1329.234 11656801 11685562 11723516 11773831 11836580 11908737 11986628 
1332.610 12067565 12151652 12242639 12345714 12466305 12606986 12765729 
1335.985 12936306 13109921 13278516 13436172 13581714 13716361 13842533 
1339.360 13960051 14066512 14157524 14230753 14287249 14332657 14374712 
1342.735 14422321 14482371 14558498 14650882 14756003 14868420 14982442 
1346.111 15093236 15198087 15295722 15387199 15474884 15562313 15653364 
1349.486 15751068 15855838 15964482 16070643 16166549 16245965 16306680 
1352.861 16352264 16391935 16438149 16502125 16592273 16711675 16859248 
1356.236 17032544 17230592 17455394 17711958 18006078 18343216 18728944 
1359.612 19170382 19679422 20275078 20979374 21810222 22766182 23814862 
1362.987 24891832 25920656 26836616 27600718 28201940 28644092 28937032 
1366.362 29092506 29127724 29072632 28970326 28881184 28867974 28982016 
1369.737 29259588 29719744 30375180 31245080 32362294 33771448 35510692 
1373.113 37582300 39913196 42338372 44642416 46612748 48113032 49094616 
1376.488 49559612 49524000 48993940 47972064 46480268 44584000 42396380 
1379.863 40046232 37659948 35331412 33114948 31042496 29129708 27383804 
1383.238 25804324 24378510 23081600 21879910 20740196 19638234 18567660 
1386.614 17542876 16590966 15737496 14993726 14351698 13793825 13302260 
1389.989 12863159 12467158 12106745 11774070 11460189 11156972 10860491 
1393.364 10572766 10301348 10056888 9846831 9671194 9526008 9408601 9321522 
1397.222 9273115 9270238 9310520 9376536 9436400 9456853 9420858 9332660 
1401.079 9214052 9091890 8990702 8923628 8892208 8887711 8895794 8904215 
1404.936 8907597 8908713 8914970 8931847 8960428 8998516 9043983 9096425 
1408.794 9157198 9226135 9298502 9363095 9406365 9416930 9393940 9346710 
1412.651 9293729 9253618 9236864 9243363 9263908 9287772 9310148 9339430 
1416.509 9398511 9519369 9729336 10033118 10394392 10744250 11010814 
1419.884 11163772 11222319 11234321 11247242 11294339 11395488 11556851 
1423.259 11774070 12033260 12315103 12598834 12870224 13125016 13369467 
1426.634 13618739 13893471 14218668 14616887 15102533 15674800 16318858 
1430.010 17010698 17727628 18454526 19184270 19911738 20632748 21342602 
1433.385 22042288 22745966 23485690 24313012 25287990 26449576 27769384 
1436.760 29138390 30415124 31507042 32406312 33167444 33863140 34561852 
1440.135 35310528 36133200 37031172 37990640 38990328 40008772 41031656 
1443.511 42049688 43057816 44054760 45044332 46040108 47066416 48156088 
1446.886 49336464 50614832 51968564 53352156 54722240 56063932 57396208 
1450.261 58763120 60209820 61759620 63397484 65069212 66706560 68244208 
1453.636 69653304 70944336 72156776 73339744 74527088 75706200 76792704 
1457.012 77662040 78233856 78525480 78622992 78601592 78501936 78343088 
1460.387 78139080 77906424 77661576 77410912 77141528 76813664 76363120 
1463.762 75708328 74779744 73551288 72039040 70279272 68296440 66085564 
1467.137 63637680 60962180 58105032 55128216 52103592 49083896 46068068 
1470.513 43017976 39874040 36613856 33317532 30190972 27474758 25291712 
1473.888 23605602 22278348 21160864 20157262 19225758 18366098 17591800 
1477.263 16909334 16307745 15765464 15260749 14780651 14322725 13892342 
1480.638 13494137 13126963 12781153 12445642 12113593 11787994 11479377 
1484.014 11201510 10963474 10764663 10594631 10436578 10274918 10102499 
1487.389 9924048 9753700 9607132 9490955 9397461 9307371 9203087 9076361 
1491.246 8931678 8778083 8622075 8465076 8305229 8141660 7977105 7820778 
1495.104 7688957 7598683 7558559 7560143 7579564 7586915 7562942 7504752 
1498.961 7421559 7326555 7229045 7131691 7031834 6925030 6809434 6686971 
1502.818 6564005 6450455 6357882 6301669 6301400 6382697 6568580 6854538 
1506.676 7172382 7401876 7465412 7377543 7203576 7002874 6816603 6668095 
1510.533 6566460 6510489 6487046 6476318 6457417 6417365 6355260 6281868 
1514.391 6215178 6176291 6180895 6230942 6306880 6373416 6397424 6364069 
1518.248 6281767 6173333 6067278 5989232 5959938 5985570 6048899 6108541 
1522.106 6121916 6071714 5966758 5828849 5680074 5539337 5420083 5329138 
1525.963 5266048 5223323 5188883 5151631 5105832 5050484 4987636 4919837 
1529.820 4850507 4783734 4726083 4689272 4688233 4738510 4843940 4983782 
1533.678 5111364 5176376 5157063 5062385 4919904 4758341 4605445 4484238 
1537.535 4414810 4415915 4500073 4665659 4884953 5108983 5286105 5391298 
1541.393 5427599 5411662 5359530 5284596 5199145 5113443 5033422 4958310 
1545.250 4881468 4795091 4696674 4590945 4490432 4412200 4371967 4379331 
1549.108 4428200 4495018 4544536 4550462 4507338 4431949 4350816 4291147 
1552.965 4269630 4284956 4315140 4325649 4287064 4187725 4038909 3869783 
1556.822 3729966 3688059 3835017 4238780 4830236 5357349 5609985 5600990 
1560.680 5446958 5244719 5043613 4868232 4727188 4621687 4547014 4491704 
1564.537 4438610 4369591 4274817 4156512 4029712 3915753 3840767 3829502 
1568.395 3897264 4039410 4223691 4399748 4522773 4576714 4570553 4524849 
1572.252 4458561 4386895 4323741 4282848 4282982 4343620 4475299 4662444 
1576.109 4854963 4988206 5019679 4953752 4826249 4679693 4545808 4443698 
1579.967 4378126 4342649 4323741 4307578 4287198 4264578 4249621 4253971 
1583.824 4284756 4340842 4412702 4486682 4551835 4602163 4638063 4662042 
1587.682 4676444 4679793 4667937 4637092 4586893 4522471 4454443 4394861 
1591.539 4354497 4340742 4355936 4398911 4466093 4552304 4650622 4751675 
1595.397 4843772 4914441 4954120 4959483 4934582 4888538 4833017 4779078 
1599.254 4733988 4701933 4684951 4684214 4701397 4737104 4788927 4849301 
1603.111 4906399 4946815 4959785 4943363 4904388 4856203 4813417 4786649 
1606.969 4779446 4786515 4797001 4800184 4790066 4766649 4733955 4696306 
1610.826 4655109 4608459 4553610 4490163 4421639 4356974 4307711 4285826 
1614.684 4301487 4357308 4444669 4539547 4611004 4634312 4604976 4534859 
1618.541 4442928 4345427 4253837 4178090 4126974 4108577 4128312 4184112 
1622.399 4260930 4330568 4365374 4350146 4292284 4214021 4141994 4097305 
1626.256 4089277 4115769 4162667 4209136 4233761 4224661 4182004 4114732 
1630.113 4033926 3948352 3862630 3777525 3694509 3617656 3557019 3531197 
1633.971 3566507 3690699 3915051 4210809 4503689 4711378 4796331 4771038 
1637.828 4673396 4540618 4402794 4279970 4183275 4118211 4082922 4070614 
1641.686 4071517 4077538 4083525 4089879 4102490 4132326 4194182 4303160 
1645.543 4467935 4677616 4892995 5051725 5104156 5039020 4878787 4656282 
1649.401 4400350 4133899 3873962 3647059 3496291 3489443 3707375 4164474 
1653.258 4705985 5081191 5188615 5098524 4921044 4730638 4566836 4444502 
1657.115 4362362 4309987 4271069 4230449 4176952 4109346 4035731 3973498 
1660.973 3943304 3961995 4033524 4142429 4254205 4330434 4348707 4307042 
1664.830 4221650 4114732 4010449 3928425 3884192 3888572 3946179 4051082 
1668.688 4184981 4319290 4420568 4464118 4441957 4361927 4241992 4103527 
1672.545 3972260 3874096 3836488 3883156 4019579 4219341 4423078 4569950 
1676.402 4625739 4595901 4509247 4400350 4296066 4211044 4147580 4096837 
1680.260 4046099 3988077 3929528 3894790 3925717 4071985 4370093 4789028 
1684.117 5198541 5430954 5424612 5240728 4978285 4710373 4479953 4309753 
1687.975 4206259 4165778 4174142 4209471 4244970 4256581 4228843 4155408 
1691.832 4040514 3894757 3736951 3589959 3482796 3449898 3519372 3693740 
1695.690 3927689 4143031 4270032 4291548 4235769 4157382 4118077 4178424 
1699.547 4375415 4680831 4987200 5178020 5211888 5115756 4942190 4736400 
1703.404 4536099 4369993 4258020 4209371 4214992 4248818 4278431 4283450 
1707.262 4259324 4215025 4163738 4116170 4075631 4038842 3996939 3942735 
1711.119 3873895 3796243 3721143 3662664 3633092 3636835 3670249 3722480 
1714.977 3782939 3849759 3933841 4054259 4223891 4428534 4622524 4749062 
1718.834 4777168 4710641 4577116 4408451 4232189 4068306 3927723 3816432 
1722.692 3734411 3677299 3638606 3611609 3591229 3573790 3557453 3540984 
1726.549 3524783 3510219 3499798 3495389 3496090 3496057 3484400 3449631 
1730.406 3384509 3292220 3188935 3104730 3079468 3156092 3357628 3654711 
1734.264 3952265 4147346 4201709 4141459 4018809 3880314 3762184 3686255 
1738.121 3663432 3689897 3746041 3800822 3824989 3805334 3746810 3665838 
1741.979 3580471 3505443 3446424 3400404 3358496 3311350 3252859 3183194 
1745.836 3106465 3028983 2955050 2885066 2815860 2743997 2671414 2608675 
1749.693 2573910 2584309 2646244 2746098 2853146 2931999 2960054 2932132 
1753.551 2860517 2767973 2682582 2630276 2628743 2679982 2766205 2855181 
1757.408 2912518 2920790 2881730 2812092 2733328 2667246 2629143 2625142 
1761.266 2649377 2684616 2709454 2705354 2664579 2590342 2493689 2389295 
1765.123 2294785 2228738 2206091 2236364 2316937 2431543 2553245 2656845 
1768.981 2729760 2776643 2814926 2866187 2946176 3052940 3161566 3233397 
1772.838 3240474 3181325 3078467 2959987 2848610 2754801 2678681 2614375 
1776.695 2557011 2506053 2468263 2454534 2474961 2531681 2614508 2698985 
1780.553 2755768 2764605 2722524 2645344 2558911 2491390 2461898 2477860 
1784.410 2530915 2602008 2666513 2704353 2706687 2674647 2616775 2545012 
1788.268 2472662 2412451 2376268 2374803 2414217 2492523 2594142 2690917 
1792.125 2749533 2747599 2685683 2584142 2470462 2367406 2289756 2241160 
1795.983 2216548 2205658 2197899 2184944 2163665 2135462 2104296 2073733 
1799.840 2045102 2017372 1988678 1959088 1931796 1911728 1904240 1912060 
1803.697 1933760 1965013 1999197 2030521 2054923 2071602 2081956 2088581 
1807.555 2093409 2096805 2097404 2092843 2081523 2063645 2041540 2018238 
1811.412 1996567 1976962 1957590 1935257 1907202 1872692 1833060 1791569 
1815.270 1751979 1716350 1684816 1654747 1623084 1588497 1552882 1521992 
1819.127 1503172 1502740 1522391 1559433 1607719 1660701 1714587 1770044 
1822.984 1831031 1901611 1980690 2058285 2116816 2138492 2113286 2044736 
1826.842 1948670 1848367 1766584 1721473 1720841 1757967 1811666 1854656 
1830.699 1869164 1851295 1811033 1761959 1715153 1676101 1644836 1618728 
1834.557 1596712 1581048 1578321 1596013 1638849 1704209 1780856 1849798 
1838.414 1890895 1889896 1842377 1754540 1641177 1523222 1422053 1358564 
1842.272 1349423 1401609 1506963 1639015 1760662 1835256 1844806 1794264 
1846.129 1706737 1609914 1528010 1477738 1463940 1480996 1515840 1554246 
1849.986 1585937 1608817 1627741 1651022 1685914 1734513 1792801 1852360 
1853.844 1903874 1940416 1959487 1962283 1952398 1934026 1911328 1889031 
1857.701 1871527 1862875 1864705 1874855 1885537 1886169 1865271 1815093 
1861.559 1735944 1636055 1528808 1428003 1343607 1279132 1232112 1197058 
1865.416 1168917 1147787 1139116 1152804 1198819 1280860 1391371 1511551 
1869.274 1618428 1694961 1733948 1736676 1707801 1652087 1573233 1475244 
1873.131 1366574 1258762 1167588 1109816 1096629 1131741 1208653 1312532 
1876.988 1423848 1524618 1603030 1652785 1674172 1670646 1647796 1611577 
1880.846 1567946 1522756 1480497 1443528 1412313 1384789 1357733 1330113 
1884.703 1304688 1288903 1291528 1319810 1374385 1447584 1522524 1576492 
1888.561 1590293 1554113 1474845 1372790 1275344 1202839 1162471 1147256 
1892.418 1140844 1124732 1083574 1011566 914334 808593 714958 653862 638431 
1896.758 670819 745359 848396 962317 1065737 1139847 1171010 1156059 1104236 
1901.097 1036807 983105 971150 1021563 1138651 1308444 1500778 1679228 
1904.955 1810701 1872126 1858716 1782387 1670047 1551851 1454931 1394628 
1908.812 1371094 1371427 1376845 1371394 1346964 1306416 1259559 1217060 
1912.670 1184731 1161541 1139349 1109783 1067531 1016216 967597 939636 
1916.527 947506 997451 1079788 1171442 1246135 1287175 1295449 1288072 
1920.384 1288670 1315589 1376047 1459818 1544004 1600569 1611378 1576393 
1924.242 1512715 1442098 1379870 1327554 1272951 1195230 1078260 919747 
1928.099 736962 563445 437357 390958 437059 564772 743799 937378 1110780 
1932.439 1240253 1316487 1341912 1327421 1287208 1236697 1190479 1159847 
1936.296 1152039 1167820 1198320 1224204 1223606 1176325 1071417 914567 
1940.154 726906 543207 402732 340221 370729 487177 660498 854771 1038501 
1944.493 1189150 1294087 1346631 1340250 1269097 1129947 928679 681571 
1948.351 422863 195269 41585 -2783 76380 269529 542875 848994 1131841 
1952.690 1342643 1450376 1446287 1345601 1176492 977293 782303 614175 480809 
1957.030 374178 274436 159304 13783 -164876 -360713 -545275 -681628 -736706 
1961.370 -693901 -558214 -353032 -117709 102164 270457 367114 394706 378058 
1965.709 354015 358492 410061 501076 599841 665211 661726 580432 443460 
1970.049 298474 199380 194838 305039 512753 764777 987721 1114633 1099087 
1974.388 930837 636938 278746 -70039 -344159 -500201 -532667 -465548 -343828 
1978.728 -214589 -112641 -48240 -7190 46456 154398 347516 636971 1004658 
1983.068 1405997 1781854 2082888 2278064 2365741 2364441 2304512 2211886 
1986.925 2099502 1963781 1791536 1569675 1295217 980249 651174 341149 77805 
1991.265 -124036 -267541 -367565 -442114 -501690 -544779 -561656 -543621 
1995.122 -488386 -405172 -310818 -222835 -153747 -104260 -63513 -15075 52156 
1999.462 140743 238464 324569 375471 375106 321850 231701 130070 46555 3214 
2004.283 3976 34427 64947 62064 -298 -123870 -285952 -439532 -532965 -523765 
2009.105 -394745 -160869 135340 438584 704636 907959 1051787 1155229 1241050 
2013.445 1318281 1374618 1375116 1281392 1066069 729030 305238 -140399 
2017.302 -532468 -815358 -966041 -1002075 -962569 -892607 -819922 -748812 
2021.160 -657841 -517708 -301216 165 370497 768859 1138684 1424679 1583775 
2025.499 1602332 1500180 1329714 1156159 1043350 1035545 1138252 1314160 
2029.357 1491635 1589728 1542474 1326690 971615 558402 194772 -20774 -27135 
2033.696 174552 520748 910084 1241117 1435516 1463309 1346332 1146624 941031 
2038.036 791265 731486 759167 837873 909121 915530 815830 597818 283123 
2042.375 -80508 -432184 -717024 -894525 -952320 -902329 -775273 -604738 
2046.233 -416891 -225418 -34689 155028 336905 498555 624196 704304 743766 
2050.572 764843 800028 879173 1020135 1215897 1437511 1641211 1788675 
2054.430 1860146 1866203 1841113 1832927 1880445 1994936 2157938 2327597 
2058.287 2457033 2511252 2483059 2394093 2285359 2195301 2145817 2133031 
2062.145 2132465 2109524 2037046 1909232 1741533 1565485 1411781 1300368 
2066.002 1231148 1189050 1151475 1103139 1042321 982773 946610 955874 
2069.859 1022559 1144000 1302462 1472052 1626477 1743096 1808372 1815692 
2073.717 1764987 1661898 1518733 1356170 1199051 1077828 1019138 1037040 
2077.574 1130246 1278800 1449246 1603629 1713057 1766051 1770776 1748718 
2081.432 1728459 1732750 1769977 1833992 1907634 1971503 2010348 2019003 
2085.289 2001427 1966810 1923409 1873990 1815525 1741533 1646831 1531335 
2089.146 1401442 1268100 1142571 1032124 939238 863071 804908 771548 776726 
2093.486 837740 969191 1173668 1435749 1722371 1991940 2199797 2314705 
2097.344 2326131 2245723 2100767 1927270 1756370 1606589 1482924 1379570 
2101.201 1287573 1202473 1128419 1077595 1066235 1105398 1194865 1319378 
2105.058 1450808 1555276 1601667 1573732 1472451 1317251 1137754 968095 
2108.916 835847 754454 723554 731054 759964 793522 822369 844479 864067 
2113.255 888834 925258 976829 1042288 1115032 1186459 1245902 1282688 
2117.113 1289202 1261354 1200247 1112540 1008976 903178 807630 732249 681272 
2121.452 654758 649548 661594 688607 729196 780942 839466 895707 937279 
2125.792 952122 931999 876118 792759 696472 602529 523435 464887 425317 
2130.132 400311 387012 386713 405186 448634 517364 602529 685852 742903 
2134.471 753292 708220 614574 493812 372619 274967 212142 180253 164143 
2138.811 145085 104782 33996 -68946 -198659 -346212 -500201 -645699 -762804 
2143.150 -828190 -819955 -723938 -542860 -299660 -31376 217877 409928 530501 
2147.490 590319 624196 675996 782734 956605 1181641 1413310 1597909 1686878 
2151.830 1653483 1498385 1249923 951524 646860 376897 166464 27038 -41879 
2156.169 -51288 -18952 30484 68791 64649 -3843 -140068 -320983 -503544 
2160.509 -638851 -684407 -623102 -471804 -280091 -112707 -34955 -85311 
2164.366 -259958 -511453 -756155 -905569 -885366 -662705 -254759 277685 
2168.224 855169 1402805 1865138 2225374 2496888 2712922 2905413 3089513 
2172.081 3253026 3364306 3380368 3268750 3024512 2674847 2271036 1875587 
2175.938 1544536 1310238 1181741 1146226 1180578 1260025 1365876 1486881 
2179.796 1617032 1751180 1880079 1993238 2079626 2133697 2156606 2156206 
2183.653 2143786 2131366 2125739 2131066 2148315 2176819 2216848 2269304 
2187.511 2336025 2418515 2517950 2631876 2756802 2885566 3006928 3104797 
2191.368 3161432 3158061 3082572 2934501 2728393 2492223 2258180 2054457 
2195.226 1894822 1773271 1668019 1551951 1404933 1223473 1024519 839997 
2199.083 701948 629505 619849 647822 678153 678186 636175 566597 507644 
2203.423 501375 582920 759665 1009441 1284350 1528974 1699618 1775699 
2207.280 1764355 1695527 1610679 1543638 1514544 1523189 1553980 1582378 
2211.137 1586535 1553780 1484387 1391204 1295582 1222908 1195363 1226563 
2214.995 1318281 1458954 1622719 1776465 1888166 1932295 1899714 1799688 
2218.852 1659803 1517935 1413044 1376446 1422784 1546398 1723802 1921213 
2222.710 2100001 2225141 2276466 2248821 2154608 2020168 1880811 1769478 
2226.567 1711494 1717614 1782952 1888332 2007785 2116716 2198865 2248421 
2230.425 2269604 2273135 2268905 2261677 2250253 2228038 2188374 2128003 
2234.282 2048431 1955826 1857384 1757036 1653982 1543073 1418130 1276142 
2238.139 1121842 966169 827316 722923 666538 665841 719372 819481 954546 
2242.479 1112407 1280262 1448315 1608318 1754840 1885936 2003225 2112054 
2246.336 2220678 2336391 2462998 2597075 2726659 2832102 2893405 2893405 
2250.194 2826399 2701286 2542413 2382199 2254783 2188208 2194269 2267606 
2254.051 2385630 2516784 2627109 2690150 2693718 2640110 2543779 2424679 
2257.909 2304179 2197999 2114651 2057919 2028357 2026460 2054989 2116050 
2261.766 2209821 2330195 2464531 2593209 2695885 2756669 2768406 2736062 
2265.624 2673714 2601808 2538180 2494023 2471895 2467064 2470929 2477327 
2269.481 2484658 2496322 2517584 2551878 2596042 2641210 2674381 2683082 
2273.338 2660912 2611009 2545746 2482126 2437874 2424812 2445571 2493823 
2277.196 2557311 2623075 2680949 2726892 2763138 2795084 2827999 2864019 
2281.053 2901143 2933300 2952815 2952982 2929997 2884399 2819595 2742030 
2284.911 2658912 2576876 2502287 2441406 2399057 2380966 2391761 2433076 
2288.768 2502954 2594675 2697385 2796418 2877561 2929563 2946843 2931398 
2292.625 2892437 2843875 2800286 2774142 2772274 2795150 2838238 2894339 
2296.483 2957385 3022977 3090647 3161332 3234699 3307644 3372020 3416100 
2300.340 3428791 3402408 3336792 3241375 3134198 3037291 2971697 2954049 
2304.198 2990547 3078167 3204790 3353120 3504374 3641045 3749885 3822849 
2308.055 3856946 3854673 3823451 3773982 3718704 3670249 3637737 3625608 
2311.913 3632491 3652606 3678202 3703398 3726089 3749584 3780299 3824287 
2315.770 3884059 3956311 4031952 4098710 4147078 4173339 4183677 4191773 
2319.627 4216999 4276758 4380435 4526087 4700124 4882104 5047937 5178690 
2323.485 5262695 5297106 5286742 5241063 5171380 5089338 5006003 4933309 
2327.342 4880798 4857309 4867662 4912029 4985256 5078342 5180735 5281510 
2331.200 5373216 5451756 5515376 5563836 5597801 5617671 5624318 5620290 
2335.057 5609482 5596761 5587699 5585819 5593069 5609717 5634992 5669097 
2338.915 5712974 5767836 5833148 5905154 5976500 6037576 6079744 6098561 
2342.772 6096276 6080080 6058710 6037677 6014764 5980128 5919866 5823913 
2346.629 5689608 5524571 5343395 5164741 5006674 4883612 4806884 4781389 
2350.487 4806884 4875839 4977581 5096982 5220338 5339067 5451454 5561722 
2354.344 5678798 5811219 5963164 6131426 6303888 6462260 6585265 6654469 
2358.202 6659986 6605012 6506150 6388917 6284692 6219984 6211044 6261261 
2362.059 6361547 6492461 6629874 6751513 6839391 6883353 6881770 6840199 
2365.917 6769417 6680948 6586846 6494614 6406974 6321572 6232253 6132366 
2369.774 6016444 5883423 5736006 5580382 5422902 5269738 5124707 4989479 
2373.631 4864010 4747823 4640508 4540786 4447113 4355835 4261600 4159891 
2377.489 4046300 3919498 3781335 3637102 3493485 3356893 3232896 3124320 
2381.346 3032219 2956084 2895039 2848010 2813726 2790882 2776776 2767873 
2385.204 2760036 2748799 2730560 2703453 2667846 2626142 2582142 2541313 
2389.061 2508352 2487324 2480360 2486424 2501654 2519284 2531515 2530781 
2392.918 2512452 2476127 2426711 2372770 2325098 2294019 2286458 2305145 
2396.776 2348018 2409885 2483059 2559644 2632676 2695585 2743464 2772274 
2400.633 2779877 2766472 2735228 2692517 2646744 2606675 2580576 2572410 
2404.491 2582876 2608809 2644410 2683082 2719624 2750700 2775976 2796251 
2408.348 2814192 2831234 2848310 2864620 2878462 2887601 2890536 2886500 
2412.206 2876727 2863519 2849978 2838505 2830167 2824097 2817027 2804221 
2416.063 2781678 2745965 2696985 2637743 2574609 2515817 2470329 2445638 
2419.920 2446437 2472928 2521083 2582909 2647811 2704687 2744398 2761437 
2423.778 2754635 2727392 2686483 2639510 2593609 2554278 2524349 2505020 
2427.635 2495822 2495922 2503087 2513785 2523283 2525349 2514018 2486191 
2431.493 2442739 2389695 2337690 2299083 2283460 2295751 2332893 2385630 
2435.350 2440473 2483992 2506886 2506153 2485058 2451669 2417082 2391427 
2439.208 2381932 2392627 2423113 2469329 2524116 2579176 2625576 2656512 
2443.065 2668913 2664613 2649844 2633309 2624009 2627576 2644510 2670114 
2446.922 2696118 2714289 2718990 2709321 2689384 2666413 2647244 2636510 
2450.780 2634976 2639977 2646277 2649177 2645577 2634043 2616542 2595509 
2454.637 2574843 2557878 2548279 2549012 2561877 2587475 2624009 2667613 
2458.495 2712255 2751200 2778510 2789715 2783345 2760870 2726292 2684516 
2462.352 2641910 2604675 2577776 2565543 2570076 2590575 2623242 2662079 
2466.209 2699052 2726359 2739063 2735562 2718923 2694618 2670314 2652945 
2470.067 2646911 2652845 2669213 2691651 2715323 2735462 2748199 2750833 
2473.924 2741930 2721524 2690884 2653111 2612275 2573176 2539880 2515151 
2477.782 2499655 2491690 2487824 2484192 2477860 2467397 2454001 2440739 
2481.639 2432209 2432609 2445604 2472362 2511385 2558644 2608075 2652645 
2485.497 2685950 2702786 2700686 2679748 2641610 2590875 2532214 2470829 
2489.354 2412517 2362909 2327597 2312340 2320734 2354381 2411252 2486091 
2493.211 2570443 2654845 2730927 2792549 2837038 2864253 2876127 2874659 
2497.069 2861184 2836370 2801553 2758836 2712922 2669780 2635943 2615975 
2500.926 2611409 2619009 2632543 2644144 2646010 2633809 2606775 2567743 
2504.784 2522283 2477060 2438840 2413150 2404288 2414617 2443805 2488891 
2508.641 2543779 2600608 2650044 2684783 2701553 2702220 2693151 2684116 
2512.499 2684116 2698052 2725425 2759369 2790382 2808290 2807323 2787414 
2516.356 2755135 2720257 2693184 2681282 2685816 2702486 2722725 2737229 
2520.213 2737962 2721658 2689384 2646711 2601075 2560177 2530348 2515218 
2524.071 2515918 2531381 2559011 2595175 2635676 2675914 2710655 2735695 
2527.928 2747399 2744398 2728193 2703186 2676448 2656078 2649078 2659779 
2531.786 2687816 2728693 2773875 2814359 2841840 2852246 2846276 2829800 
2535.643 2811458 2800953 2806522 2832235 2877795 2938170 3005193 3069257 
2539.500 3121283 3154657 3166739 3159230 3137369 3109502 3084073 3068089 
2543.358 3065353 3075864 3095386 3117712 3136935 3148683 3151753 3147448 
2547.215 3139271 3130527 3123151 3116977 3109936 3098990 3081938 3057511 
2551.073 3027314 2994384 2962923 2937469 2922058 2919956 2933500 2963724 
2554.930 3009798 3068723 3135166 3201152 3256732 3293522 3304473 3287011 
2558.788 3244313 3185130 3122084 3069024 3038992 3040027 3074162 3136701 
2562.645 3217741 3304105 3382372 3442183 3477753 3488241 3476884 3449464 
2566.502 3412259 3370283 3327710 3286945 3250823 3222481 3205391 3203321 
2570.360 3218776 3251891 3300399 3359565 3424082 3488408 3548367 3600884 
2574.217 3644085 3675929 3694910 3699087 3687826 3662095 3625441 3583344 
2578.075 3542421 3508516 3485134 3472810 3469703 3472142 3476216 3479456 
2581.932 3480959 3481661 3483598 3489610 3502570 3525384 3560059 3608335 
2585.790 3670182 3743601 3824287 3906191 3982091 4045229 4090682 4116070 
2589.647 4121890 4111153 4088241 4058105 4025899 3996638 3973933 3961125 
2593.504 3959052 3966375 3979550 3993695 4003995 4008008 4007239 4006703 
2597.362 4014128 4036099 4076066 4131658 4195252 4255042 4300684 4324845 
2601.219 4327255 4313634 4293623 4278197 4274282 4284052 4304633 4330200 
2605.077 4354430 4373306 4386125 4394192 4400585 4406777 4412769 4416818 
2608.934 4416451 4410392 4398610 4383247 4367115 4352824 4341645 4334350 
2612.792 4330601 4330970 4337027 4351251 4375549 4409990 4451297 4492909 
2616.649 4526556 4543732 4539078 4512193 4467868 4414576 4362931 4322804 
2620.506 4300282 4297873 4313936 4343720 4381540 4421438 4459264 4492139 
2624.364 4518956 4540652 4558900 4576044 4594059 4614386 4636623 4658860 
2628.221 4677951 4690511 4693860 4687262 4671856 4651626 4631030 4614989 
2632.079 4607086 4608794 4619443 4635953 4655042 4673095 4687664 4697746 
2635.936 4703976 4708163 4711948 4716470 4721561 4725145 4724073 4715766 
2639.793 4698449 4673295 4644259 4617836 4601125 4599920 4616898 4651426 
2643.651 4698650 4752144 4805175 4852685 4892057 4922719 4945541 4961728 
2647.508 4971951 4976374 4975503 4970811 4964711 4960891 4962198 4970375 
2651.366 4984820 5002183 5017869 5026886 5025981 5013914 4992094 4963873 
2655.223 4933778 4906298 4885589 4874632 4875939 4890213 4916821 4953450 
2659.081 4995110 5036338 5070699 5092925 5100703 5094702 5078912 5059133 
2662.938 5042037 5032651 5033891 5045724 5065301 5088634 5111230 5129301 
2666.795 5141103 5146937 5148479 5148848 5151195 5157264 5167893 5181674 
2670.653 5196127 5208467 5216683 5220237 5220338 5219165 5219265 5221646 
2674.510 5225871 5229661 5229829 5223926 5210948 5191969 5170408 5150424 
2678.368 5135906 5129200 5130642 5139125 5152100 5166921 5181641 5194450 
2682.225 5204343 5210412 5211821 5207964 5198239 5183116 5163735 5142176 
2686.083 5121154 5103284 5091081 5085952 5088265 5096982 5109922 5124003 
2689.940 5135671 5141438 5138823 5126686 5105430 5077303 5045691 5014450 
2693.797 4987871 4969035 4959952 4960991 4970912 4986999 5005132 5021154 
2697.655 5031311 5032953 5025746 5011232 4992831 4974464 4960187 4952613 
2701.512 4953216 4961929 4977916 5000004 5026718 5056954 5088868 5120148 
2705.370 5148345 5170710 5185430 5192103 5191633 5186168 5177751 5168396 
2709.227 5158739 5149049 5139158 5129703 5122226 5119008 5122394 5133726 
2713.084 5152570 5176980 5204108 5231170 5256658 5280806 5305391 5332694 
2716.942 5364561 5401698 5442831 5485578 5526585 5562594 5591055 5610757 
2720.799 5622035 5626802 5628077 5629353 5633380 5641503 5652615 5663759 
2724.657 5670339 5668560 5656576 5636167 5612570 5592264 5582026 5585483 
2728.514 5602198 5627506 5654964 5677355 5689743 5690716 5681283 5664095 
2732.372 5641403 5614214 5582295 5545143 5503162 5458500 5415017 5376839 
2736.229 5346816 5325214 5309382 5295026 5277150 5252868 5222015 5187408 
2740.086 5153877 5126954 5111297 5109051 5120383 5142913 5172621 5204577 
2743.944 5233350 5254411 5264740 5263097 5250554 5230734 5207997 5186905 
2747.801 5170844 5161153 5157163 5156392 5156660 5155956 5153810 5150759 
2751.659 5148345 5147876 5149921 5154581 5161422 5170274 5181506 5195725 
2755.516 5213363 5234021 5256255 5277351 5293987 5303546 5304720 5298414 
2759.374 5287681 5277351 5272354 5276814 5293148 5320786 5356544 5394988 
2763.231 5430014 5455715 5467861 5465077 5449038 5423975 5395659 5370600 
2767.088 5353994 5348795 5355705 5372981 5398008 5427699 5459775 5493497 
2770.946 5529571 5569105 5613241 5661745 5713075 5763639 5809373 5846682 
2774.803 5873414 5889872 5899242 5906430 5916540 5933872 5960510 5996152 
2778.661 6038282 6084011 6130148 6175316 6219278 6263245 6308325 6355495 
2782.518 6404957 6455937 6508067 6560607 6613726 6667624 6722775 6779143 
2786.375 6836193 6893283 6950045 7006477 7063085 7120980 7180601 7241915 
2790.233 7304315 7366556 7427863 7488065 7548074 7609473 7673815 7742416 
2794.090 7815515 7892237 7971504 8051730 8131734 8210268 8286282 8358663 
2797.948 8426257 8488660 8546509 8602135 8658850 8721048 8792114 8873947 
2801.805 8965976 9065669 9169076 9272878 9374844 9475208 9575697 9679190 
2805.663 9788333 9904894 10028845 10159207 10294222 10432097 10571306 
2809.038 10711103 10851453 10992734 11135352 11279784 11425830 11572776 
2812.413 11719636 11865829 12011459 12158501 12310364 12472000 12648466 
2815.788 12843398 13057129 13286647 13525891 13767353 14004877 14235717 
2819.164 14461816 14688582 14924038 15176161 15449751 15746258 16062941 
2822.539 16395204 16738016 17087510 17442460 17804396 18176688 18564306 
2825.914 18973560 19410256 19881246 20392996 20951382 21561150 22225406 
2829.289 22945450 23721068 24551502 25436820 26378766 27381158 28450076 
2832.665 29593734 30820976 32141168 33563708 35097168 36749748 38529152 
2836.040 40441916 42492984 44685896 47020848 49494660 52101160 54830116 
2839.415 57667812 60599704 63610100 66684352 69811064 72981536 76190088 
2842.790 79432712 82705024 85999664 89306520 92609864 95892496 99134104 
2846.166 102312640 105406016 108387632 111225728 113882688 116311840 
2849.059 118461640 120280560 121718152 122734040 123298480 123395936 
2851.952 123025072 122199568 120948784 119313120 117345184 115104400 
2854.845 112648384 110034840 107312832 104523968 101705832 98890432 96108624 
2858.220 93390688 90762432 88247288 85864096 83625336 81541040 79618544 
2861.595 77863168 76280016 74871064 73635328 72567176 71657232 70893384 
2864.970 70262520 69753040 69353808 69054336 68842760 68702936 68613864 
2868.346 68550656 68482992 68380472 68214552 67958440 67592744 67104608 
2871.721 66489452 65752208 64907008 63976632 62987880 61972052 60958788 
2875.096 59974588 59042904 58182424 57408084 56732672 56165620 55713880 
2878.471 55381312 55168696 55074500 55096240 55231640 55478664 55836172 
2881.847 56302636 56874136 57544888 58305904 59146276 60056116 61026432 
2885.222 62050976 63126220 64250268 65421804 66639424 67900792 69203096 
2888.597 70542992 71916472 73318368 74741720 76177064 77614264 79042448 
2891.972 80451864 81836288 83192728 84521608 85825056 87106760 88369984 
2895.348 89617896 90853296 92079152 93297528 94510216 95717376 96919248 
2898.723 98115776 99308608 100502232 101703864 102921688 104162600 105430552 
2902.098 106724040 108037408 109363104 110694536 112028736 113367728 
2904.991 114718584 116091712 117497424 118946168 120445840 122002184 
2907.884 123618344 125295224 127030416 128818560 130652232 132523000 
2910.777 134422128 136343216 138280880 140230448 142186224 144138560 
2913.670 146074528 147977856 149829344 151609952 153299248 154872992 
2916.563 156304944 157562368 158608384 159407008 159925472 160138480 
2919.457 160030496 159592720 158821264 157715328 156276976 154513088 
2922.350 152439760 150083120 147477120 144661040 141674032 138549248 
2925.243 135316832 132004144 128638432 125251320 121874816 118538288 
2928.136 115265184 112067544 108947224 105899360 102917192 99997752 97144288 
2931.511 94365912 91674952 89083096 86596272 84215472 81935520 79748392 
2934.886 77645248 75619312 73666928 71788592 69987168 68268096 66637448 
2938.261 65100192 63660464 62320532 61082148 59947728 58920956 58008572 
2941.637 57219268 56561476 56041276 55659188 55409616 55280408 55255236 
2945.012 55319136 55459308 55668944 55946776 56294600 56713908 57202484 
2948.387 57751856 58348388 58972456 59601488 60212520 60782140 61287416 
2951.762 61707980 62024908 62223436 62294560 62235556 62049524 61745184 
2955.138 61333816 60826812 60234712 59566868 58829664 58029740 57171872 
2958.513 56259900 55297080 54285660 53228312 52128656 50990904 49820484 
2961.888 48622484 47401024 46157932 44894216 43610456 42309480 40996768 
2965.263 39679844 38367336 37066900 35783732 34520344 33277682 32056938 
2968.639 30861208 29696150 28568994 27486654 26453484 25470268 24534428 
2972.014 23641008 22785004 21962572 21172622 20415324 19692456 19005336 
2975.389 18354970 17741676 17166060 16629523 16133673 15680330 15269157 
2978.764 14897737 14559834 14246982 13949445 13657786 13365811 13069934 
2982.140 12770915 12470976 12174857 11886465 11608984 11344604 11094525 
2985.515 10859233 10639144 10434745 10246555 10074860 9918895 9776507 
2988.890 9644836 9519878 9397799 9275586 9151952 9027169 8902862 8781227 
2992.748 8663447 8549516 8437440 8324548 8207971 8086396 7960873 7834205 
2996.605 7710913 7595041 7489616 7395574 7311594 7235749 7165409 7099121 
3000.462 7036077 6977014 6921966 6871133 6823403 6777023 6729471 6678088 
3004.320 6621429 6558993 6491721 6422241 6353948 6290709 6235950 6191684 
3008.177 6158210 6133341 6113279 6092983 6067883 6034653 5992457 5942706 
3012.035 5888058 5831704 5776465 5723852 5673998 5626902 5582631 5541586 
3015.892 5504973 5473801 5448031 5426727 5407301 5386300 5360603 5327897 
3019.750 5287580 5241130 5191231 5141908 5096680 5058965 5030841 5013009 
3023.607 5004294 5002517 5003423 5002283 4994641 4976877 4947686 4908443 
3027.464 4863541 4818878 4780016 4751675 4734926 4727925 4725514 4721327 
3031.322 4710240 4689741 4661037 4628954 4599886 4579225 4569615 4569649 
3035.179 4575006 4578723 4574906 4560574 4536634 4507104 4478346 4455950 
3039.037 4443029 4439447 4441757 4444836 4442895 4432484 4411898 4382310 
3042.894 4346599 4308481 4272341 4241524 4218806 4206025 4203215 4209304 
3046.751 4221616 4236037 4247948 4252934 4247580 4230081 4200672 4160828 
3050.609 4114096 4064393 4016569 3975604 3945510 3929261 3927689 3938857 
3054.466 3958584 3981423 4002289 4017137 4024896 4026702 4025765 4024595 
3058.324 4025565 4029277 4034661 4040781 4046433 4051283 4054962 4056701 
3062.181 4054995 4047102 4030146 4002155 3963399 3916154 3865103 3815529 
3066.039 3771910 3737218 3712120 3695578 3685386 3678970 3674091 3668377 
3069.896 3660191 3648396 3632992 3615151 3597877 3584213 3577164 3577732 
3073.753 3584447 3594603 3604693 3612411 3618124 3625074 3636701 3656448 
3077.611 3684417 3717367 3748915 3771609 3780433 3773380 3752425 3722480 
3081.468 3689530 3658888 3633995 3616387 3607032 3605996 3613179 3627847 
3085.326 3647761 3669213 3687792 3698753 3699354 3688895 3669280 3642983 
3089.183 3612110 3577364 3537777 3491948 3439812 3383741 3328479 3280501 
3093.041 3245515 3226721 3224017 3234465 3252725 3274191 3295525 3315724 
3096.898 3335256 3355691 3377797 3402007 3427722 3453505 3477753 3498361 
3100.755 3512457 3517267 3509818 3488675 3454807 3411792 3365475 3323370 
3104.613 3291652 3274292 3272088 3282838 3302603 3326776 3351918 3375960 
3108.470 3397833 3417135 3433733 3447126 3456911 3463157 3466464 3467866 
3112.328 3468434 3469035 3469904 3471240 3473444 3476951 3483364 3493551 
3116.185 3507547 3523915 3539782 3551507 3556084 3551674 3538780 3519739 
3120.042 3497860 3476216 3456744 3440279 3425952 3412727 3399970 3387147 
3123.900 3374391 3362069 3350249 3338629 3326709 3313654 3298964 3283139 
3127.757 3266914 3251891 3240307 3234732 3237103 3248653 3269751 3298429 
3131.615 3331984 3367178 3400471 3429792 3454507 3474947 3491948 3505643 
3135.472 3515831 3520775 3519338 3510987 3496691 3478721 3460084 3442918 
3139.330 3427755 3413762 3398868 3381270 3361001 3339196 3318596 3301635 
3143.187 3289348 3280835 3273691 3265278 3254027 3240274 3226287 3214737 
3147.044 3207761 3205758 3207260 3210398 3213502 3217307 3223783 3236301 
3150.902 3256999 3286143 3321400 3358530 3392757 3421176 3442684 3459149 
3154.759 3472810 3485969 3498862 3510253 3517401 3518269 3511956 3499798 
3158.617 3484433 3469169 3456110 3445790 3437307 3428590 3418304 3406081 
3162.474 3393024 3380936 3371719 3365775 3362303 3359031 3353387 3343771 
3166.332 3329948 3313988 3298730 3288113 3284641 3289448 3301568 3318929 
3170.189 3338328 3357160 3373322 3386078 3394861 3399736 3400504 3396931 
3174.046 3389418 3378865 3367679 3358563 3354656 3357528 3367378 3382372 
3177.904 3399503 3415299 3427956 3437073 3444153 3451334 3460752 3473344 
3181.761 3488608 3505209 3521710 3537276 3551507 3564502 3575660 3583678 
3185.619 3585950 3579469 3562030 3532667 3493117 3446825 3398067 3351818 
3189.476 3312318 3282404 3264176 3258334 3264076 3279333 3300299 3322402 
3193.333 3340666 3351818 3354189 3349714 3341935 3335290 3332919 3335490 
3197.191 3340332 3343804 3342135 3333420 3318796 3301534 3285442 3273190 
3201.048 3265011 3258668 3250956 3239673 3224251 3206726 3190604 3178688 
3204.906 3172380 3170444 3170210 3168742 3164536 3158295 3152988 3152621 
3208.763 3159597 3174883 3196479 3220278 3241275 3255496 3260604 3256932 
3212.621 3246416 3233531 3222582 3217641 3220679 3231494 3246950 3262006 
3216.478 3270619 3268750 3254461 3229825 3200017 3172480 3153722 3147348 
3220.335 3153656 3169376 3188835 3207527 3221747 3230660 3234532 3233998 
3224.193 3229358 3219978 3206159 3189269 3173348 3163902 3166939 3185731 
3228.050 3219143 3261238 3302336 3331283 3339631 3323537 3285142 3231094 
3231.908 3171412 3116143 3073295 3047501 3040060 3049069 3070091 3097388 
3235.765 3124920 3147047 3160264 3164136 3161265 3156660 3155758 3162901 
3239.623 3178688 3199516 3218876 3229625 3226854 3209864 3182727 3153656 
3243.480 3131662 3123585 3132529 3156326 3188434 3220412 3245181 3257833 
3247.337 3257099 3244747 3224818 3201552 3178988 3159930 3145846 3136835 
3251.195 3131562 3128758 3126589 3124153 3120882 3117812 3116110 3117478 
3255.052 3122551 3131328 3142608 3154423 3165571 3174783 3182593 3189569 
3258.910 3196612 3204456 3212334 3219344 3223783 3225052 3223149 3219077 
3262.767 3214637 3211599 3210531 3210999 3211432 3209663 3203121 3189903 
3266.625 3169309 3141874 3109068 3073862 3040060 3011366 2990880 2980471 
3270.482 2980438 2989546 3004793 3023978 3044632 3066154 3088612 3112539 
3274.339 3138337 3164770 3189736 3210164 3223917 3229859 3228757 3223283 
3278.197 3216473 3211232 3209163 3210264 3213369 3216707 3218442 3217474 
3282.054 3213502 3206359 3196545 3185230 3173815 3164603 3160064 3161499 
3285.912 3169176 3180657 3192273 3199316 3198748 3189769 3175584 3160965 
3289.769 3152354 3153889 3166238 3186198 3207527 3223416 3228690 3221547 
3293.626 3203121 3177386 3148483 3119914 3094285 3073295 3057945 3049370 
3297.484 3048335 3054408 3065119 3076165 3082638 3080603 3069257 3051772 
3301.341 3034221 3024245 3027915 3047234 3079301 3117211 3153422 3181392 
3305.199 3198214 3204690 3205357 3204823 3206759 3212568 3220646 3228223 
3309.056 3232863 3232462 3227155 3218109 3207293 3196445 3186665 3178688 
3312.914 3172046 3165971 3159129 3150318 3138604 3124219 3108835 3094852 
3316.771 3085642 3083873 3090581 3104196 3121149 3136902 3147214 3150151 
3320.628 3146113 3138170 3130060 3125054 3124687 3128591 3134766 3140840 
3324.486 3145178 3146847 3146180 3143777 3140306 3136534 3133864 3133898 
3328.343 3139004 3151419 3172413 3201586 3235967 3271120 3302903 3327811 
3332.201 3345407 3357762 3368213 3380602 3396497 3415432 3434735 3450666 
3336.058 3460686 3463792 3461521 3456410 3451367 3447693 3445022 3441248 
3339.916 3433499 3419339 3397799 3369549 3336659 3302169 3269451 3240741 
3343.773 3217875 3201218 3190437 3183962 3180190 3177453 3175184 3173548 
3347.630 3174349 3180056 3193007 3214069 3241943 3273157 3301768 3321868 
3351.488 3329013 3321267 3300399 3271421 3240774 3214570 3196812 3188101 
3355.345 3186465 3188334 3190537 3192006 3193842 3199716 3212935 3235901 
3359.203 3267682 3305040 3342135 3374157 3398267 3414898 3427588 3441314 
3363.060 3459283 3481928 3505543 3523881 3530362 3520341 3493785 3455275 
3366.917 3413495 3376862 3352920 3345307 3353588 3373990 3401106 3429091 
3370.775 3453071 3469169 3474446 3467165 3446658 3413929 3371953 3325707 
3374.632 3281703 3246349 3224685 3218543 3227322 3247184 3272155 3296460 
3378.490 3315390 3325941 3327811 3323170 3315223 3307878 3304039 3304372 
3382.347 3307711 3310549 3308646 3298897 3280267 3255430 3229224 3207994 
3386.205 3196278 3195744 3203855 3215572 3224351 3225619 3217975 3203421 
3390.062 3186866 3172814 3164937 3163802 3168208 3175951 3185731 3197981 
3393.919 3214236 3235567 3261172 3287479 3309447 3321200 3319731 3305908 
3397.777 3285376 3266313 3256965 3263175 3285609 3320532 3360166 3396297 
3401.634 3421042 3429592 3420909 3396864 3361601 3320465 3278365 3239406 
3405.492 3206058 3178688 3156860 3138770 3122785 3108334 3096087 3088311 
3409.349 3087744 3096888 3117044 3147782 3186565 3230660 3276361 3320866 
3413.207 3361234 3395128 3419272 3431128 3428423 3410657 3380134 3342035 
3417.064 3303137 3270653 3250055 3243612 3249955 3264043 3279867 3291418 
3420.921 3295258 3290617 3279867 3267081 3256398 3252058 3256298 3270352 
3424.779 3293288 3322535 3354022 3382071 3401373 3406415 3394527 3365475 
3428.636 3322602 3271220 3219177 3174516 3143643 3131128 3138437 3163602 
3432.494 3202053 3247017 3291619 3329614 3356326 3370684 3373623 3368013 
3436.351 3357327 3344405 3330649 3316025 3299932 3282404 3264810 3250155 
3440.208 3241342 3240908 3248720 3262140 3276629 3287545 3292887 3293989 
3444.066 3295592 3304339 3326008 3362403 3409922 3459483 3499965 3520107 
3447.923 3514094 3483164 3435169 3380668 3331116 3295158 3276428 3273958 
3451.781 3282037 3293722 3301568 3300867 3290050 3270619 3246149 3219978 
3455.638 3194943 3171278 3148382 3124320 3098323 3071693 3047968 3032119 
3459.496 3029249 3042329 3070859 3110136 3152788 3190537 3216707 3228356 
3463.353 3226621 3216006 3201385 3186565 3171846 3154724 3130994 3097288 
3467.210 3053941 3005527 2960087 2926828 2913819 2924760 2957685 3006027 
3471.068 3061049 3114208 3158796 3192874 3216840 3233431 3245081 3253260 
3474.925 3257633 3256898 3249621 3235367 3215004 3190470 3164503 3140873 
3478.783 3123151 3115008 3119581 3139338 3173949 3219945 3271320 3319931 
3482.640 3358363 3382305 3391488 3390453 3385210 3382238 3384843 3392223 
3486.498 3399770 3400371 3388449 3361001 3319464 3269317 3217675 3169977 
3490.355 3129492 3096754 3070492 3049603 3033921 3025546 3027515 3041962 
3494.212 3069157 3105631 3144778 3178087 3196712 3194910 3170811 3126889 
3498.070 3069558 3007796 2950913 2906714 2881830 2879262 2899509 2939271 
3501.927 2993149 3053641 3112405 3162000 3196379 3212401 3209330 3189369 
3505.785 3157728 3121049 3088011 3067422 3066287 3088578 3133297 3193908 
3509.642 3260471 3323103 3373756 3408853 3428523 3434468 3428557 3411558 
3513.500 3383507 3344806 3298596 3249721 3205124 3171679 3153789 3151153 
3517.357 3158929 3169042 3173014 3164770 3142508 3109302 3071426 3035556 
3521.214 3007295 2989746 2982607 2984675 2993282 3007396 3027481 3055977 
3525.072 3095619 3148616 3214370 3289515 3366477 3435570 3486303 3510286 
3528.929 3504006 3469236 3412694 3343036 3269551 3199783 3137502 3085275 
3532.787 3043430 3013167 2996352 2995284 3011499 3042996 3084274 3124854 
3536.644 3153122 3160665 3144077 3106699 3056811 3004426 2957986 2922225 
3540.501 2896773 2878361 2861585 2842174 2818628 2792783 2769640 2755235 
3544.359 2756035 2775976 2815960 2871891 2935735 2996519 3042663 3065720 
3548.216 3062583 3036223 2994550 2950446 2917121 2905880 2923292 2968061 
3552.074 3031252 3098589 3156192 3194743 3211232 3208395 3192373 3170277 
3555.931 3147348 3128591 3117311 3115643 3124219 3141908 3165204 3187467 
3559.789 3200985 3197914 3172713 3123318 3051706 2962590 2862852 2761437 
3563.646 2668713 2597808 2565710 2590442 2687250 2859250 3089045 3335724 
3567.503 3547231 3685420 3735580 3708243 3626778 3518203 3404979 3303137 
3571.361 3222782 3168007 3138503 3130928 3140773 3162133 3189202 3216740 
3575.218 3239940 3255596 3262340 3260337 3251190 3237036 3219778 3201619 
3579.076 3184496 3169977 3159263 3151419 3142875 3127757 3097855 3047001 
3582.933 2972698 2880530 2783812 2703586 2666813 2699752 2821429 3032486 
3586.791 3308279 3595271 3830371 3968415 3995267 3926620 3793268 3628782 
3590.648 3461554 3314823 3207894 3153889 3159697 3222181 3327243 3449464 
3594.505 3558923 3631188 3653007 3626544 3566641 3495021 3432464 3395462 
3598.363 3393158 3425985 3486404 3560059 3629751 3676765 3686656 3652472 
3602.220 3575326 3463324 3328779 3186465 3049303 2929130 2836370 2779444 
3606.078 2765805 2799886 2881097 2998721 3132029 3255263 3343938 3386780 
3609.935 3388149 3366577 3346810 3353354 3401406 3489510 3595037 3680340 
3613.792 3709213 3659656 3534036 3354923 3158128 2981105 2859950 2825598 
3617.650 2895139 3067022 3313888 3588356 3833446 4003393 4077872 4060881 
3621.507 3973798 3843508 3696347 3549937 3411825 3279967 3144811 2995551 
3625.365 2827999 2649577 2487491 2387429 2407820 2601075 2971430 3439812 
3629.222 3860924 4121321 4196557 4137344 4014997 3891748 3806571 3772578 
3633.080 3781469 3808075 3823384 3805401 3749651 3667809 3581073 3508349 
3636.937 3461721 3442350 3443151 3452035 3458514 3457646 3449296 3436138 
3640.794 3418137 3391421 3347477 3277029 3174049 3040127 2885466 2727493 
3644.652 2586109 2483425 2439273 2468463 2577709 2764304 3017471 3321801 
3648.509 3661995 4018475 4358580 4633877 4792445 4802563 4669812 4428769 
3652.367 4129450 3821145 3551808 3360867 3277663 3317694 3469269 3688126 
3656.224 3904051 4055497 4111788 4080949 3993662 3885897 3785413 3707475 
3660.082 3657384 3633226 3629851 3641178 3661761 3685486 3703732 3706740 
3663.939 3683114 3623871 3525318 3391321 3233664 3071827 2934534 2856215 
3667.796 2875260 3025446 3316392 3709580 4105065 4382008 4454042 4315241 
3671.654 4022287 3662329 3320432 3071693 2990714 3134298 3511088 4030080 
3675.511 4514035 4794354 4827757 4686793 4479216 4288168 4154806 4088140 
3679.369 4072286 4079210 4081819 4065229 4027070 3973798 3911340 3841369 
3683.226 3759176 3658086 3534604 3393892 3250155 3126489 3048869 3041629 
3687.083 3121583 3290116 3528090 3795373 4048072 4251294 4390376 4466629 
3690.941 4488958 4466562 4408585 4325113 4227839 4129818 4043624 3977009 
3694.798 3932638 3905656 3885663 3859454 3816499 3753594 3677600 3603390 
3698.656 3549570 3536207 3577966 3678903 3827630 3997507 4150324 4250424 
3702.513 4280104 4241758 4154037 4040447 3922340 3813557 3719238 3639241 
3706.371 3570282 3509551 3458414 3423815 3418605 3459984 3563634 3738822 
3710.228 3979283 4258822 4530976 4742597 4853657 4847994 4737874 4553476 
3714.085 4331237 4103460 3896429 3728763 3609103 3539548 3513793 3520708 
3717.943 3545761 3576563 3606998 3636902 3670082 3711151 3759844 3810448 
3721.800 3851899 3873260 3870419 3849793 3826928 3820978 3848656 3915118 
3725.658 4009144 4103861 4166950 4172202 4111153 3994565 3846817 3697015 
3729.515 3569848 3483598 3443919 3442116 3455509 3458648 3435770 3394627 
3733.373 3367178 3400905 3535573 3777625 4081752 4362161 4539547 4577752 
3737.230 4495051 4337495 4151160 3963734 3783608 3603858 3413228 3206125 
3741.087 2993349 2802821 2683116 2694084 2888635 3275193 3770640 4205390 
3744.945 4412869 4348105 4081150 3723248 3363739 3067088 2874326 2807356 
3748.802 2876594 3075931 3384943 3765058 4166113 4530273 4800586 4937531 
3752.660 4930695 4800050 4585855 4335320 4090348 3878944 3718302 3612611 
3756.517 3556151 3539114 3552743 3592966 3658320 3743802 3834348 3903048 
3760.375 3922340 3874063 3760446 3601686 3431229 3284107 3189102 3163435 
3764.232 3204189 3286711 3370217 3418905 3416033 3373456 3321100 3297828 
3768.089 3335757 3449397 3628515 3836288 4023491 4145139 4182740 4144637 
3771.947 4056533 3945878 3836120 3740961 3663699 3600684 3544592 3490111 
3775.804 3437440 3394827 3377463 3404044 3488842 3632190 3812955 3991120 
3779.662 4117809 4158452 4107607 3987475 3836288 3693440 3593133 3554480 
3783.519 3579335 3651002 3741496 3819774 3864000 3869048 3842605 3799551 
3787.376 3753294 3713056 3682913 3662597 3650868 3646090 3645489 3643818 
3791.234 3633527 3605394 3551875 3472976 3378231 3286978 3223884 3214069 
3795.091 3271654 3390319 3536575 3661561 3721277 3696079 3598746 3469336 
3798.949 3363805 3339363 3447827 3708678 4083892 4462277 4711579 4754456 
3802.806 4601360 4322670 4002925 3718637 3524616 3461253 3543891 3752024 
3806.664 4020448 4261232 4406576 4434493 4368286 4248885 4113293 3981523 
3810.521 3855877 3727259 3583979 3420809 3247484 3087944 2980104 2965559 
3814.378 3075364 3309981 3621031 3913780 4085832 4088007 3939191 3706138 
3818.236 3464961 3291752 3250890 3384542 3692771 4105500 4494750 4730069 
3822.093 4761155 4622959 4392317 4141793 3927689 3785647 3729498 3753695 
3825.951 3830738 3920133 3979149 3982091 3928224 3838260 3742298 3670550 
3829.808 3644787 3671886 3742164 3830939 3909167 3951629 3947884 3902380 
3833.666 3830872 3752658 3686021 3647494 3649331 3700223 3803696 3954906 
3837.523 4136842 4319658 4469675 4557963 4572696 4523007 4434426 4337964 
3841.380 4261332 4223256 4228375 4266585 4315341 4348941 4344256 4289607 
3845.238 4187022 4048440 3889842 3725153 3564302 3409855 3258701 3104430 
3849.095 2942040 2772708 2610442 2482026 2434742 2530915 2832302 3359197 
3852.953 4032922 4675741 5106704 5268597 5219734 5057658 4856706 4658760 
3856.810 4477610 4310455 4149554 3989783 3831674 3682312 3550605 3444153 
3860.667 3366644 3318128 3297762 3309480 3362637 3468200 3627413 3819875 
3864.525 3998143 4103794 4096669 3970889 3759042 3516633 3311384 3203689 
3868.382 3238137 3419373 3695177 3959454 4110718 4117475 4022187 3905389 
3872.240 3840800 3878141 4023859 4239282 4447514 4571926 4566066 4430710 
3876.097 4201709 3929327 3661561 3436004 3284908 3230760 3282037 3424315 
3879.955 3615585 3791830 3889307 3876503 3761883 3588823 3414230 3301868 
3883.812 3306609 3458648 3744571 4094161 4401020 4568042 4561981 4411530 
3887.669 4180833 3933373 3724919 3596340 3570783 3653508 3826192 4049745 
3891.527 4269865 4438711 4527828 4529871 4454611 4319993 4148149 3960290 
3895.384 3777692 3619561 3500766 3432097 3417235 3452570 3524984 3615117 
3899.242 3701259 3763554 3792098 3789858 3771442 3757471 3770305 3825022 
3903.099 3923677 4052253 4183576 4288771 4347268 4354698 4320327 4259960 
3906.957 4188160 4115167 4045831 3981222 3921872 3868847 3824621 3790627 
3910.814 3765760 3744370 3716932 3674660 3613513 3538546 3462623 3405113 
3914.671 3385043 3414029 3490812 3599682 3716297 3815095 3882220 3917759 
3918.529 3931534 3934677 3932604 3923042 3899805 3858317 3801022 3739324 
3922.386 3690432 3671251 3691067 3746074 3817735 3880548 3910972 3899070 
3926.244 3850027 3779296 3703732 3637837 3588957 3558690 3545160 3547164 
3930.101 3565605 3604626 3666640 3749550 3842405 3928224 3989214 4012622 
3933.958 3997306 3952331 3893319 3836555 3794638 3772745 3767632 3769169 
3937.816 3765326 3746710 3710783 3663432 3617189 3588155 3589425 3627847 
3941.673 3698486 3786382 3867176 3918395 3926753 3892250 3826861 3749651 
3945.531 3681176 3637603 3628682 3655747 3712721 3786583 3861928 3926385 
3949.388 3971124 3993762 3996404 3984466 3963901 3940763 3919698 3903449 
3953.246 3893219 3888873 3888472 3890344 3893052 3895927 3899437 3903784 
3957.103 3909300 3914650 3918528 3919030 3915285 3908130 3899337 3891982 
3960.960 3888070 3887636 3889241 3889709 3886533 3878710 3867744 3857013 
3964.818 3850394 3850294 3857013 3868413 3880314 3888906 3891414 3887536 
3968.675 3879111 3869315 3861660 3858685 3861426 3869783 3882387 3896897 
3972.533 3911005 3922240 3928525 3928391 3921404 3908866 3892784 3876068 
3976.390 3861326 3850194 3843107 3839463 3837591 3836588 3836120 3836254 
3980.248 3838260 3843241 3852233 3865839 3884493 3907763 3935480 3966275 
3984.105 3997841 4026802 4049008 4059778 4055798 4035899 4001353 3956578 
3987.962 3907060 3859521 3819106 3789357 3771275 3763822 3764724 3771575 
3991.820 3783407 3799585 3820476 3846349 3876269 3907461 3935814 3956243 
3995.677 3965038 3960524 3944140 3920568 3896362 3877974 3870151 3874129 
3999.535 3887836 3906793 3925215 
##END=
