##TITLE=drugomas_2 Sep 22 08:33:43 2026 (GMT+02:00)
##JCAMP-DX=5.01  $$ Nicolet v. 970
##DATATYPE=INFRARED SPECTRUM
##ORIGIN=Vojna akademija
##OWNER=Nicolet
##LONGDATE=2026/09/22
##TIME=08:34:17
##SPECTROMETER/DATA SYSTEM=Nicolet iS20
##DATA PROCESSING=
Ratio against background
%Transmittance->Absorbance
Truncated
ElementMultiply or ElementDivide
##COMMENTS=
Number of sample scans: 8
Collection length: 11,90 sec
Sample gain: 8,0
Background collected on: Tue Sep 22 08:32:30 2026 (GMT+02:00);
Number of background scans: 8
Background gain: 8,0
Sample spacing:  1,000
Number of scan points: 12415
Resolution points: 8286
Number of FFT points: 65536
Apodization: N-B strong;
Phase correction: Mertz;
Laser frequency: 15798,00 cm-1
Number of rejected sample scans: 0
Number of rejected background scans: 0
Bench serial number: BER2010005;
##RESOLUTION= 4,000
##XUNITS=1/CM
##YUNITS=ABSORBANCE
##FIRSTX=400.156891
##LASTX=4000.123047
##FIRSTY=0.017037
##MAXX=4000.123047
##MINX=400.156891
##MAXY=0.155894
##MINY=-0.000783
##XFACTOR=1.000000
##YFACTOR=1.000000E-009
##NPOINTS=7468
##DELTAX=0.482117
##ZPD=6100
##XYDATA=(X++(Y..Y))
400.157 17037472 18892710 19687222 19714786 19401906 19168062 19289766 
403.532 19887560 20906250 22182060 23499262 24680230 25628406 26331376 
406.907 26833058 27175040 27357760 27337716 27048110 26459894 25614102 
410.281 24635448 23692652 22939792 22484038 22346296 22469696 22737028 
413.656 23023948 23238976 23353154 23403822 23476702 23674422 24079906 
417.031 24713690 25476206 26104186 26206734 25507302 24077420 22358190 
420.406 20879202 20048466 20051380 20855944 22255574 23890716 25329468 
423.781 26125228 26004830 24964298 23262292 21280030 19382816 17811990 
427.155 16636029 15798621 15174686 14646667 14145031 13672181 13282069 
430.530 13050916 13033809 13242783 13647836 14197201 14839173 15540643 
433.905 16290339 17085064 17914840 18755444 19561420 20281328 20871554 
437.280 21300978 21556518 21641626 21576784 21401666 21182294 21006048 
440.655 20952078 21070110 21341452 21670536 21895974 21856424 21457362 
444.030 20711662 19740860 18726764 17860874 17277102 17033714 17097574 
447.404 17367962 17701744 17961424 18051876 17917846 17544946 16947196 
450.779 16165346 15262636 14331115 13480260 12803948 12365690 12178435 
454.154 12212615 12413591 12720007 13078437 13438393 13754870 13990333 
457.529 14126922 14186555 14235854 14376699 14700714 15265520 16067825 
460.904 17040022 18047038 18914580 19478452 19616672 19299120 18579660 
464.278 17567268 16378585 15127303 13925289 12885447 12136660 11798140 
467.653 11932542 12508317 13384194 14342348 15122020 15515059 15413427 
471.028 14851996 13999675 13116785 12455598 12142997 12138738 12263634 
474.403 12310705 12119828 11649449 10972106 10248183 9658388 9358863 9433217 
478.260 9868862 10574939 11414775 12255557 12977271 13494034 13757811 
481.635 13759897 13535633 13156607 12725193 12340430 12079829 11977329 
485.009 12016841 12144462 12294345 12420649 12502554 12544570 12558041 
488.384 12544808 12489766 12367770 12159183 11866339 11520136 11170300 
491.759 10858417 10597856 10361271 10097276 9758749 9342105 8904079 8559080 
495.616 8436291 8629883 9153983 9921301 10759058 11468048 11908022 12029274 
499.473 11893753 11636449 11426783 11388175 11545928 11804268 11988228 
502.848 11915513 11472777 10666547 9617429 8520287 7568842 6927117 6678223 
506.705 6814012 7248215 7852087 8497073 9080996 9553307 9906149 10163345 
510.562 10362425 10544656 10748462 11000210 11312805 11680218 12077547 
513.936 12461906 12784770 13004549 13099370 13078847 12985396 12880122 
517.311 12813298 12804596 12826163 12815892 12696227 12414887 11969802 
520.686 11417598 10857772 10401892 10144453 10127020 10327033 10656632 
524.061 10992394 11194846 11157211 10844795 10308744 9672279 9086072 8685722 
527.918 8540426 8648338 8946289 9342613 9739637 10058074 10257276 10332157 
531.775 10306675 10215549 10094224 9967204 9849407 9753395 9692268 9681019 
535.632 9734215 9858151 10049563 10295750 10580880 10889878 11213070 
539.007 11544839 11876930 12193838 12471454 12677668 12784974 12778627 
542.381 12664909 12466578 12217523 11948583 11676713 11405931 11130490 
545.756 10845712 10552362 10258192 9971578 9693962 9419233 9138586 8853014 
549.613 8584290 8379537 8300534 8398320 8696877 9174795 9771897 10398499 
553.470 10968334 11419843 11727226 11901279 11972527 11970892 11908941 
556.845 11785100 11593636 11341816 11064682 10821389 10679655 10701016 
560.220 10916550 11319845 11868689 12502144 13150698 13751689 14262185 
563.594 14654241 14916768 15054164 15085723 15042432 14960116 14871266 
566.969 14790284 14709421 14600267 14432084 14188780 13885602 13567664 
570.344 13299356 13137242 13105448 13188916 13341483 13508253 13650982 
573.719 13768892 13899561 14104332 14435269 14911625 15501461 16135667 
577.094 16725827 17203428 17541738 17757554 17898268 18022930 18182354 
580.469 18400630 18672488 18964178 19229186 19416598 19484828 19410118 
583.843 19190884 18850248 18430498 17988048 17573582 17222560 16949402 
587.218 16749278 16608248 16513139 16458074 16441898 16460482 16499441 
590.593 16529350 16516374 16437976 16300108 16142476 16027220 16015049 
593.968 16131163 16351094 16599882 16782614 16809306 16636373 16282015 
597.343 15821507 15354450 14967797 14714528 14598999 14589439 14640155 
600.717 14719807 14818876 14946569 15115227 15321841 15539750 15726915 
604.092 15835596 15835149 15720319 15509599 15231476 14913339 14572923 
607.467 14218051 13856011 13501519 13178670 12918522 12745460 12668252 
610.842 12676132 12744267 12846607 12967405 13109819 13291088 13530881 
614.217 13834700 14183302 14530403 14816751 14981242 14983745 14816614 
617.592 14505598 14100977 13664009 13256652 12923880 12693532 12573730 
620.966 12553129 12605758 12697182 12794290 12871350 12919853 12948868 
624.341 12981094 13041287 13144482 13287092 13448168 13595492 13700529 
627.716 13752202 13760820 13753980 13763010 13809422 13891453 13983148 
631.091 14041426 14025752 13914203 13716191 13470006 13236294 13075910 
634.466 13026946 13095101 13250094 13441947 13616347 13740676 13813390 
637.840 13862648 13929942 14051487 14238319 14468462 14689439 14837459 
641.215 14863825 14748394 14510874 14201412 13887348 13626022 13451824 
644.590 13370937 13365469 13405927 13465324 13528591 13594192 13670574 
647.965 13770397 13905582 14084925 14311596 14581524 14880180 15177671 
651.340 15427366 15577561 15580824 15415418 15099514 14697459 14307795 
654.715 14034067 13968297 14158380 14601707 15247605 16018866 16829076 
658.089 17596700 18260204 18774436 19113212 19272308 19272828 19162002 
661.464 19004158 18873294 18826718 18887760 19037772 19225308 19383718 
664.839 19455440 19412092 19260358 19050340 18872810 18862186 19138594 
668.214 19719570 20476244 21228288 21866424 22378250 22805048 23195248 
671.589 23582652 23978666 24373954 24745538 25067558 25318650 25490754 
674.963 25589816 25639934 25678214 25752566 25913480 26196350 26610714 
678.338 27132256 27711178 28282312 28790538 29212700 29564224 29891258 
681.713 30246316 30665664 31148742 31661938 32153622 32583780 32943442 
685.088 33261404 33585580 33964024 34416964 34927396 35448780 35927780 
688.463 36330568 36658488 36945920 37244480 37602316 38041308 38554248 
691.838 39107380 39656428 40153036 40557364 40841672 40989304 41000480 
695.212 40895296 40718688 40528988 40389804 40350712 40430860 40616988 
698.587 40871632 41153596 41433992 41711332 42006724 42351960 42768252 
701.962 43252324 43774972 44294804 44773568 45193104 45563000 45910964 
705.337 46269824 46661368 47092524 47557596 48047708 48558820 49093316 
708.712 49656300 50246232 50853280 51462004 52062872 52662332 53287608 
712.086 53976620 54758960 55640052 56590804 57556160 58473320 59304256 
715.461 60053416 60773492 61542144 62441560 63527056 64808444 66248128 
718.836 67771528 69289800 70706688 71937480 72911648 73569032 73870256 
722.211 73799288 73369760 72620328 71611600 70411112 69077560 67662280 
725.586 66203132 64726868 63256600 61809968 60401920 59042028 57736492 
728.961 56488564 55302424 54183024 53133784 52150624 51218260 50305564 
732.335 49371688 48377296 47295420 46123444 44886388 43631336 42408512 
735.710 41262380 40218056 39277056 38422568 37626560 36860824 36100680 
739.085 35329760 34539644 33728472 32902300 32074024 31265982 30504118 
742.460 29814630 29217484 28719202 28311630 27973982 27679464 27400498 
745.835 27116242 26814448 26487610 26129944 25733126 25286760 24783072 
749.209 24222298 23619106 22999806 22401798 21862800 21409150 21051398 
752.584 20780374 20571250 20390216 20208912 20009362 19789060 19559168 
755.959 19339372 19149640 19004470 18910046 18864678 18863328 18900392 
759.334 18973316 19082294 19226660 19401422 19592996 19776820 19922524 
762.709 19997288 19974320 19842678 19610988 19307466 18971066 18645648 
766.083 18363852 18141550 17976238 17850414 17738604 17616334 17468674 
769.458 17291170 17089406 16874542 16659956 16457111 16274516 16117854 
772.833 15990091 15890719 15814910 15751962 15684178 15588207 15441407 
776.208 15225402 14933606 14575425 14176250 13774295 13410781 13125050 
779.583 12940744 12861658 12869269 12929888 12999804 13036916 13013494 
782.958 12918727 12763715 12576663 12398045 12266906 12212479 12246593 
786.332 12359077 12519264 12679920 12792106 12811250 12709976 12484446 
789.707 12156320 11768861 11375080 11031306 10778045 10633168 10588383 
793.082 10615206 10672321 10717589 10722684 10675716 10584411 10469127 
796.457 10354993 10262365 10201165 10170977 10164294 10173080 10193636 
799.832 10229457 10289574 10384211 10517498 10684919 10871770 11057341 
803.206 11220006 11345047 11428654 11478220 11508467 11535993 11573252 
806.581 11623652 11680763 11730358 11758171 11753472 11715993 11656768 
809.956 11596971 11560492 11567978 11630323 11745098 11898792 12070154 
813.331 12238754 12388499 12511182 12604940 12670572 12706428 12706325 
816.706 12660644 12561417 12407386 12208832 11985435 11762971 11566685 
820.081 11412904 11308759 11252615 11239659 11267848 11341203 11469374 
823.455 11661872 11920827 12235073 12579119 12919989 13225396 13473663 
826.830 13661102 13799777 13911227 14015177 14122917 14231472 14327793 
830.205 14394611 14421122 14408449 14370397 14328307 14303274 14307521 
833.580 14340259 14388173 14432015 14456918 14456678 14437770 14416292 
836.955 14412491 14441640 14511594 14620828 14762585 14929526 15117456 
840.329 15325548 15554482 15800614 16053796 16294844 16501024 16650902 
843.704 16731130 16741805 16696386 16619435 16538402 16479272 16462686 
847.079 16500577 16599709 16759919 16975070 17231248 17507412 17776434 
850.454 18007528 18175270 18263900 18272818 18215524 18116608 18003246 
853.829 17895988 17807434 17741330 17696428 17670890 17666852 17688560 
857.204 17740606 17823450 17930206 18046452 18153988 18233596 18269500 
860.578 18252704 18179590 18051876 17876928 17668198 17444632 17231902 
863.953 17058802 16949058 16916950 16961288 17066384 17205772 17351892 
867.328 17485990 17602532 17710266 17825040 17961664 18123656 18300292 
870.703 18467768 18599512 18673942 18683662 18637694 18558220 18472814 
874.078 18404434 18366616 18358944 18369486 18378956 18368862 18324898 
877.452 18240680 18118334 17966844 17799528 17629100 17467950 17325340 
880.827 17207806 17120080 17064936 17041538 17045466 17067660 17094748 
884.202 17112014 17108672 17081376 17037266 16992608 16969006 16983304 
887.577 17041056 17130662 17225284 17290136 17291204 17209252 17045948 
890.952 16825770 16586214 16371600 16218757 16147394 16158054 16232412 
894.327 16340876 16447680 16522363 16543601 16503364 16407488 16273689 
897.701 16128618 15999477 15910758 15876526 15898384 15965926 16061017 
901.076 16164176 16258417 16335336 16394928 16442141 16482886 16520573 
904.451 16554752 16582290 16600743 16612584 16624771 16649146 16697349 
907.826 16776346 16885392 17015660 17152962 17280482 17386172 17462948 
911.201 17510240 17531940 17533528 17519314 17492268 17454220 17406762 
914.575 17353134 17297652 17244692 17196292 17150136 17098814 17031440 
917.950 16936482 16807962 16648768 16471565 16297150 16149251 16045649 
921.325 15992600 15982185 15995868 16009893 16004600 15972182 15917219 
924.700 15854841 15802298 15772576 15767869 15780170 15794808 15798965 
928.075 15786732 15763504 15741928 15739111 15769003 15837245 15941039 
931.450 16071022 16214767 16359489 16495414 16615132 16712707 16785438 
934.824 16834138 16866618 16898242 16951400 17049568 17209012 17433078 
938.199 17707196 18003556 18284186 18516482 18681794 18780976 18832566 
941.574 18868414 18920776 19012398 19151856 19331890 19534662 19737566 
944.949 19921692 20076436 20200408 20299834 20384764 20466066 20550894 
948.324 20641922 20737624 20833800 20926382 21013280 21096370 21181806 
951.698 21277558 21391850 21531170 21696900 21886426 22091580 22301960 
955.073 22504138 22684274 22830296 22932422 22986112 22994112 22967494 
958.448 22925190 22889318 22882788 22920510 23007528 23137442 23296796 
961.823 23467994 23635234 23789032 23924360 24039632 24134580 24207550 
965.198 24256248 24280004 24281160 24265076 24238380 24205026 24163618 
968.573 24107716 24029756 23925866 23801736 23673022 23560474 23484570 
971.947 23455648 23469812 23510034 23553548 23579468 23576146 23545012 
975.322 23496848 23445752 23402806 23373506 23358678 23359308 23380884 
978.697 23433720 23530146 23677466 23870484 24088416 24295876 24454956 
982.072 24531588 24510062 24396314 24218480 24017814 23838034 23717952 
985.447 23679952 23728276 23849166 24016868 24198160 24358918 24473462 
988.821 24524646 24508730 24434238 24319808 24188000 24061554 23960422 
992.196 23897228 23878954 23906786 23976880 24082078 24212172 24356044 
995.571 24500876 24634956 24748626 24835204 24891904 24919308 24921414 
998.946 24904394 24877694 24854888 24850746 24880676 24955384 25075984 
1002.321 25230782 25396526 25544340 25645348 25682888 25657052 25586336 
1005.695 25499712 25428950 25398950 25419150 25485764 25585002 25702048 
1009.070 25825598 25952418 26085362 26227780 26380032 26535966 26684450 
1012.445 26815400 26922944 27010238 27088278 27173312 27280768 27420298 
1015.820 27593516 27793226 28006810 28218380 28414238 28584812 28726388 
1019.195 28841948 28941106 29037770 29145654 29276072 29433296 29612498 
1022.570 29800932 29982170 30139084 30259672 30338864 30378732 30386126 
1025.945 30369672 30337514 30296656 30252498 30211008 30177264 30155420 
1029.320 30147998 30153786 30169520 30190476 30212924 30236546 30264256 
1032.695 30300210 30347784 30405280 30464310 30509344 30521962 30485422 
1036.070 30389146 30234168 30032798 29807496 29583378 29382878 29219186 
1039.446 29091904 28988992 28891878 28785156 28662320 28530602 28408792 
1042.821 28321072 28285956 28310782 28388098 28501374 28631810 28767312 
1046.196 28908594 29067600 29260722 29498684 29780884 30092454 30408336 
1049.571 30701012 30952394 31158178 31330328 31490010 31662368 31868484 
1052.947 32119368 32417412 32755926 33123850 33505258 33883056 34239460 
1056.322 34556396 34820216 35023604 35169128 35268088 35339644 35406072 
1059.697 35486316 35595956 35744336 35935124 36165716 36427200 36702364 
1063.072 36966700 37194052 37359984 37451856 37474284 37449908 37413968 
1066.448 37402344 37444056 37552280 37725252 37951192 38216936 38512536 
1069.823 38831160 39166772 39509936 39845712 40159648 40444536 40708320 
1073.198 40974772 41281440 41663480 42142596 42720172 43379908 44097776 
1076.573 44856076 45653500 46504568 47430812 48444120 49535136 50669456 
1079.949 51797444 52863996 53829644 54678040 55415716 56062312 56642444 
1083.324 57180448 57698648 58226220 58799920 59456172 60222300 61099956 
1086.699 62059040 63039056 63973144 64808368 65526208 66149072 66727616 
1090.074 67317616 67951304 68627920 69314904 69967008 70543576 71025688 
1093.450 71417792 71737432 72000784 72215352 72379760 72490360 72548384 
1096.825 72561464 72534208 72460208 72315024 72063880 71674352 71137144 
1100.200 70476576 69749816 69024224 68355696 67771760 67265696 66807992 
1103.575 66366436 65925524 65492764 65093384 64755864 64500704 64333336 
1106.951 64249156 64243084 64317696 64484024 64753288 65125636 65583736 
1110.326 66095868 66630848 67172096 67730784 68341040 69046136 69871576 
1113.701 70806408 71796216 72760872 73612912 74285896 74755536 75034360 
1117.076 75159536 75169936 75093240 74937800 74698280 74364344 73928392 
1120.452 73388312 72744184 71995672 71143704 70194672 69165640 68090624 
1123.827 67017064 65995024 65074480 64293840 63678192 63244640 63003964 
1127.202 62964052 63129856 63501552 64071208 64823756 65742844 66815564 
1130.577 68038808 69419464 70969112 72692784 74580040 76600088 78709888 
1133.953 80864624 83032232 85204144 87392120 89616624 91888496 94197128 
1137.328 96507416 98769784 100930120 102947680 104797272 106463784 107937640 
1140.703 109207392 110265168 111114408 111779296 112304736 112742448 
1143.596 113140520 113525632 113900992 114255176 114577112 114870632 
1146.489 115157488 115467256 115824920 116236400 116686592 117148480 
1149.382 117598880 118032480 118464640 118921240 119421416 119965936 
1152.275 120533560 121090680 121607088 122071136 122489632 122878104 
1155.168 123244088 123575664 123842192 124011088 124063112 124009024 
1158.061 123885560 123740976 123606584 123483944 123339984 123126952 
1160.954 122801864 122350608 121789904 121158872 120494856 119813880 
1163.848 119105232 118340176 117488904 116537328 115494832 114388256 
1166.741 113248840 112097400 110940992 109775840 108596536 107402472 
1169.634 106199000 104992632 103783136 102560512 101309608 100017192 
1172.527 98683240 97323560 95965976 94637048 93355440 92124256 90936176 
1175.902 89781200 88655784 87565904 86521936 85529264 84579416 83647832 
1179.277 82703504 81718936 80684920 79615480 78543176 77506520 76533224 
1182.652 75634304 74801272 74013960 73249256 72490360 71729112 70962440 
1186.028 70188864 69404616 68604632 67785968 66952116 66115036 65290696 
1189.403 64496784 63745452 63040816 62379472 61753892 61155032 60573992 
1192.778 60003612 59436720 58866620 58289652 57706408 57123796 56553096 
1196.153 56006444 55489804 55000256 54525496 54050500 53563732 53065416 
1199.529 52567444 52091300 51658928 51283436 50966720 50699876 50469068 
1202.904 50262036 50072400 49898496 49738696 49588136 49435916 49269392 
1206.279 49081592 48876672 48672108 48491688 48357112 48275932 48236164 
1209.654 48208248 48156972 48053368 47885480 47662376 47410116 47161476 
1213.030 46943468 46773720 46657792 46593088 46574020 46596076 46655356 
1216.405 46746524 46862444 46993232 47128972 47264720 47400988 47543696 
1219.780 47698912 47868872 48048076 48225724 48389296 48531848 48656248 
1223.155 48775084 48904708 49059968 49248200 49466180 49704668 49951572 
1226.531 50198916 50442456 50681888 50916384 51141728 51350668 51535008 
1229.906 51689608 51815360 51918260 52007632 52090780 52172036 52252376 
1233.281 52332016 52413396 52501296 52601368 52715116 52836080 52948692 
1236.656 53030224 53058640 53018168 52904492 52724132 52491984 52224272 
1240.032 51933832 51628176 51309796 50977752 50629800 50263564 49875412 
1243.407 49460684 49014820 48533516 48015548 47463448 46883628 46284088 
1246.782 45673856 45061204 44454776 43863416 43298484 42771836 42294360 
1250.157 41873888 41512916 41208240 40953000 40738812 40557144 40401112 
1253.533 40264116 40138496 40015604 39885952 39740800 39576536 39395240 
1256.908 39205028 39016096 38838444 38676908 38530672 38394520 38261408 
1260.283 38126344 37986300 37840552 37688748 37530240 37363844 37190620 
1263.658 37015480 36845456 36688376 36548360 36421652 36297468 36160564 
1267.034 35998584 35805752 35587900 35359124 35138588 34941760 34777036 
1270.409 34643552 34534908 34441924 34358608 34284024 34220960 34173280 
1273.784 34143276 34129260 34126252 34128080 34127648 34118080 34091880 
1277.159 34040488 33954776 33827212 33654388 33439438 33192478 32926500 
1280.535 32653146 32379750 32106098 31828374 31542384 31248642 30953176 
1283.910 30665808 30394406 30141638 29901586 29663440 29415142 29150226 
1287.285 28871444 28590084 28319764 28072834 27854872 27663008 27490642 
1290.660 27331506 27183472 27049874 26937362 26851632 26794676 26763734 
1294.036 26752246 26753374 26762852 26778924 26801656 26830060 26860480 
1297.411 26886106 26900452 26898902 26881664 26853148 26819628 26785688 
1300.786 26751824 26713944 26665566 26601872 26521878 26429434 26332116 
1304.161 26237424 26149826 26069494 25992624 25913446 25826758 25729820 
1307.536 25622818 25508252 25390694 25275486 25169580 25080160 25014662 
1310.912 24978440 24973386 24995884 25037300 25085636 25127904 25154726 
1314.287 25161082 25147144 25115090 25068154 25009748 24942084 24869482 
1317.662 24798262 24735436 24687490 24656206 24636112 24613846 24572540 
1321.037 24494566 24367224 24186354 23956782 23691148 23406794 23123918 
1324.413 22860820 22631736 22445446 22303112 22199250 22121738 22055604 
1327.788 21985504 21899562 21793290 21670568 21542938 21424988 21331534 
1331.163 21273176 21253516 21270182 21316778 21385584 21470520 21568426 
1334.538 21678788 21803010 21943228 22101690 22280964 22483550 22711052 
1337.914 22962706 23233138 23510104 23776536 24014768 24212104 24365682 
1341.289 24482858 24577870 24664870 24756096 24858116 24971808 25093464 
1344.664 25216982 25336354 25446166 25544304 25630304 25706548 25775984 
1348.039 25843250 25912250 25985590 26063372 26142682 26219404 26288392 
1351.415 26346338 26392004 26425560 26447498 26457006 26451336 26427286 
1354.790 26384680 26328806 26270546 26226020 26210110 26231688 26290788 
1358.165 26378236 26478242 26573618 26652530 26710102 26750660 26783926 
1361.540 26822376 26874720 26944344 27027834 27117972 27208094 27292096 
1364.916 27366160 27426120 27467134 27485206 27478992 27452450 27414898 
1368.291 27379958 27360336 27363160 27389522 27436426 27501938 27589844 
1371.666 27712660 27890130 28144418 28490442 28924920 29420034 29929522 
1375.041 30399166 30785442 31062960 31217274 31239526 31121582 30854804 
1378.417 30438898 29885472 29220852 28476716 27685750 26873696 26057390 
1381.792 25251992 24472236 23733350 23048510 22422174 21847678 21308390 
1385.167 20782600 20250082 19699148 19134162 18573160 18041478 17561196 
1388.542 17144070 16791464 16498925 16259655 16065659 15907492 15772954 
1391.918 15648453 15521240 15383217 15234222 15084729 14952810 14855905 
1395.293 14803551 14793918 14818260 14867734 14939024 15032759 15149432 
1398.668 15284739 15425443 15552834 15652232 15717089 15750414 15760928 
1402.043 15756462 15740141 15707847 15649552 15554620 15418302 15247159 
1405.419 15057936 14873562 14713363 14588788 14505016 14463906 14468017 
1408.794 14524441 14642897 14833516 15101675 15445562 15855391 16316518 
1412.169 16815504 17340408 17881694 18430566 18974008 19495674 19978760 
1415.544 20406156 20765844 21048754 21246834 21348866 21341140 21215624 
1418.920 20982572 20678858 20355458 20054088 19795546 19578542 19389364 
1422.295 19209792 19026936 18838622 18658342 18510640 18423030 18413282 
1425.670 18484986 18631988 18845750 19121730 19459704 19862446 20330630 
1429.045 20856640 21424640 22013112 22600112 23169876 23712914 24226222 
1432.421 24710008 25166664 25600746 26020838 26439856 26876974 27353456 
1435.796 27885290 28466878 29066536 29638466 30147784 30584138 30958336 
1439.171 31288452 31592232 31880930 32158114 32419804 32658898 32868848 
1442.546 33048044 33202138 33343830 33489506 33654744 33853040 34093744 
1445.922 34383680 34727068 35125260 35574808 36066912 36590388 37137596 
1449.297 37712200 38328968 39011532 39783720 40658428 41628176 42662412 
1452.672 43718688 44749840 45724652 46632040 47473388 48254568 48969536 
1456.047 49588768 50059832 50343924 50455256 50454704 50412760 50367996 
1459.422 50329784 50295148 50261484 50230832 50210000 50206580 50225960 
1462.798 50267024 50318920 50354860 50328592 50180132 49835680 49227676 
1466.173 48306856 47041896 45432788 43511704 41343788 39003340 36566564 
1469.548 34087720 31571958 28994874 26320250 23551518 20784892 18214694 
1472.923 16045544 14372144 13149571 12247548 11527486 10896775 10310373 
1476.299 9761460 9259982 8814802 8422913 8071240 7744373 7431334 7129636 
1480.156 6844305 6583583 6354789 6160394 5998470 5864951 5756621 5671950 
1484.014 5609045 5563098 5524538 5479606 5414011 5317667 5188951 5035333 
1487.871 4870410 4710909 4570720 4460135 4384552 4344155 4334350 4346599 
1491.728 4369993 4392551 4404568 4399279 4374076 4330769 4275821 4218906 
1495.586 4168154 4126874 4090381 4049410 3996471 3931868 3863097 3800187 
1499.443 3749818 3711385 3678569 3643116 3598379 3542521 3478120 3410222 
1503.301 3343036 3277463 3208962 3127490 3020775 2880563 2717523 2569410 
1507.158 2480326 2462598 2492556 2537847 2579509 2611275 2635943 2658845 
1511.016 2684983 2716823 2753334 2792149 2831701 2873092 2919756 2976434 
1514.873 3045566 3124119 3202754 3263976 3291352 3277196 3225352 3146847 
1518.730 3052473 2950246 2844041 2738329 2641643 2566410 2524016 2516651 
1522.588 2534847 2564710 2595075 2619509 2635209 2642177 2641243 2634776 
1526.445 2625442 2617009 2613075 2616809 2629709 2649977 2673181 2691451 
1530.303 2696085 2680148 2639743 2577009 2502520 2436274 2399290 2403322 
1534.160 2440006 2488424 2526282 2540846 2527882 2488657 2425912 2342088 
1538.017 2239195 2118647 1984152 1845971 1723536 1637885 1600603 1610580 
1541.875 1657308 1729623 1818653 1917518 2019303 2115018 2194036 2246789 
1545.732 2268305 2260045 2228538 2183579 2136627 2098237 2079193 2087583 
1549.590 2124507 2184278 2256414 2329562 2394559 2445471 2476861 2484158 
1553.447 2465431 2424879 2374436 2331128 2311407 2324632 2371737 2441306 
1557.305 2508286 2529515 2452302 2262243 2030821 1860013 1785481 1783152 
1561.162 1816723 1861444 1904939 1944077 1979791 2013577 2044369 2067341 
1565.019 2074998 2061914 2027425 1977727 1923243 1877783 1854623 1863574 
1568.877 1906702 1974133 2048464 2112520 2159037 2190373 2212718 2231469 
1572.734 2249120 2264875 2276132 2279397 2271536 2251352 2221044 2187442 
1576.592 2158704 2141555 2137893 2145951 2161634 2179949 2194935 2199630 
1580.449 2188641 2158904 2111921 2053991 1994903 1944011 1909165 1894755 
1584.307 1902077 1929766 1974299 2030588 2091711 2149047 2193470 2216948 
1588.164 2215383 2191205 2153476 2114951 2087183 2075830 2078527 2085319 
1592.021 2083188 2062780 2022199 1968474 1914557 1874688 1857817 1864905 
1595.879 1888765 1918850 1945708 1964879 1976962 1985316 1992972 2000229 
1599.736 2004589 2002892 1993904 1980290 1968474 1965911 1977894 2005788 
1603.594 2045335 2088715 2128569 2159503 2179483 2188807 2188574 2179383 
1607.451 2161867 2137759 2110589 2086484 2072900 2075331 2095873 2130966 
1611.308 2172756 2211087 2236564 2243458 2229337 2194502 2140456 2070537 
1615.166 1990675 1911395 1849332 1821980 1838617 1896086 1982088 2082056 
1619.023 2185411 2286758 2383365 2474161 2556778 2626042 2673847 2691317 
1622.881 2674514 2628442 2567843 2510619 2468996 2447237 2443338 2450836 
1626.738 2461665 2469696 2471662 2468063 2461732 2455134 2450103 2447070 
1630.596 2446937 2452402 2467463 2497455 2546679 2617009 2705087 2801186 
1634.453 2890102 2953315 2980905 2980638 2975867 2986643 3021075 3074396 
1638.310 3137602 3201886 3262540 3318929 3373022 3428390 3487940 3552977 
1642.168 3622902 3695311 3767732 3837290 3900407 3952231 3986840 3999814 
1646.025 3992859 3978346 3978380 4010884 4079344 4172737 4274683 4371298 
1649.883 4452904 4517148 4566300 4609731 4663750 4749732 4876743 5018271 
1653.740 5124573 5171414 5169939 5142343 5105061 5065804 5026450 4985256 
1657.598 4939073 4886293 4827589 4766415 4707660 4656181 4614721 4582808 
1661.455 4557929 4536065 4514035 4491436 4469240 4448151 4426358 4400451 
1665.312 4365809 4319558 4261600 4195921 4131758 4081484 4057370 4064895 
1669.170 4097907 4138314 4165611 4169526 4153368 4129851 4113962 4118311 
1673.027 4150089 4210375 4292586 4382142 4458461 4502250 4506635 4479015 
1676.885 4434961 4388903 4352522 4333245 4335220 4360320 4407145 4470780 
1680.742 4544871 4624533 4707493 4794354 4888103 4990217 5097049 5198374 
1684.599 5284461 5355035 5418003 5481585 5548700 5618041 5684203 5740807 
1688.457 5782375 5808600 5825827 5846816 5885740 5952784 6051822 6180324 
1692.314 6332162 6500870 6683943 6881434 7095013 7323017 7553737 7763093 
1696.172 7925676 8029857 8082346 8100034 8104051 8117960 8172045 8302223 
1700.029 8527552 8826368 9142241 9424549 9653881 9835375 9983885 10116065 
1703.887 10247301 10389607 10548967 10721698 10894532 11051325 11183049 
1707.262 11292435 11392699 11501696 11636721 11807537 12013060 12239095 
1710.637 12463475 12664295 12823741 12936306 13009090 13060783 13116854 
1714.012 13207908 13363692 13608073 13959812 14431090 15024184 15723102 
1717.388 16482232 17233040 17913322 18499056 19010598 19495604 20003464 
1720.763 20577992 21252226 22047516 22973048 24026638 25199528 26480108 
1724.138 27860630 29337286 30907278 32567314 34314612 36156784 38122184 
1727.513 40264004 42652032 45346784 48362776 51639860 55054040 58454136 
1730.889 61756336 65006248 68424848 72392288 77399912 83834800 91590208 
1734.264 99839936 107433360 113681304 118634288 122741424 126461240 
1737.157 130111832 133845848 137677856 141502336 145156960 148462864 
1740.050 151277584 153502880 155060608 155874960 155893840 155126528 
1742.943 153673984 151704576 149399376 146857984 144070832 140943040 
1745.836 137371024 133312344 128829432 124059152 119168840 114267112 
1748.729 109364208 104382368 99240400 93938344 88591864 83411528 78600952 
1752.104 74270408 70410648 66926724 63692660 60589192 57524612 54436020 
1755.480 51290816 48102152 44930844 41872576 39027008 36456680 34172528 
1758.855 32141204 30301524 28581202 26910992 25243984 23568590 21920750 
1762.230 20368340 18976916 17780542 16774589 15926499 15192974 14532870 
1765.605 13914306 13316951 12732665 12163203 11617118 11106593 10642404 
1768.981 10231764 9877742 9579862 9332626 9123257 8932049 8734571 8513663 
1772.838 8271659 8027731 7804787 7615913 7461199 7328240 7198961 7056316 
1776.695 6891533 6707160 6514491 6326951 6154076 5996925 5848697 5698605 
1780.553 5540914 5379389 5226710 5098423 5004864 4947250 4917323 4899261 
1784.410 4875671 4835563 4777771 4710072 4643455 4586960 4543967 4512394 
1788.268 4487787 4466227 4445907 4426626 4406543 4380101 4335521 4260362 
1792.125 4148718 4008977 3862128 3733375 3640744 3590260 3576329 3585416 
1795.983 3599314 3600650 3578300 3529760 3461086 3383974 3311584 3253994 
1799.840 3214971 3190571 3172246 3151052 3122451 3088445 3056877 3038559 
1803.697 3041695 3069858 3118913 3178521 3233831 3270085 3277730 3254495 
1807.555 3207293 3148616 3093584 3053307 3031852 3024345 3020541 3007462 
1811.412 2975600 2922425 2851145 2768440 2681115 2594009 2509519 2428977 
1815.270 2353981 2286225 2229071 2185011 2155141 2138026 2129868 2125373 
1819.127 2119280 2107393 2087350 2059284 2025694 1990576 1959754 1938785 
1822.984 1931696 1940017 1961618 1990442 2018570 2040475 2055156 2066275 
1826.842 2079858 2100268 2127404 2155307 2171890 2164265 2123708 2053192 
1830.699 1964979 1875653 1797392 1733449 1681856 1637485 1596545 1558136 
1834.557 1524884 1500379 1486182 1479932 1474546 1461115 1433954 1393033 
1838.414 1345368 1302395 1275410 1269894 1284948 1313196 1344837 1371061 
1842.272 1387747 1396623 1406695 1429167 1470024 1526613 1587799 1639348 
1846.129 1669416 1672276 1647929 1601368 1540213 1475178 1417664 1376147 
1849.986 1355340 1353877 1364480 1375482 1373720 1348127 1293123 1211511 
1853.844 1114766 1021198 950063 918784 939138 1014190 1137954 1296380 
1857.701 1470257 1638151 1782121 1888798 1951266 1969805 1951067 1907168 
1861.559 1852526 1801451 1764920 1749850 1759830 1794664 1853624 1932495 
1865.416 2024562 2119812 2202961 2255482 2259512 2204093 2093975 1954728 
1869.274 1825474 1740269 1718779 1758499 1839748 1932695 2006820 2037179 
1873.131 2009516 1923809 1792701 1637619 1481894 1346199 1244706 1182771 
1876.988 1158584 1166059 1198520 1248826 1311535 1381598 1453767 1523089 
1880.846 1584906 1636854 1678330 1710329 1734181 1747920 1745558 1717681 
1884.703 1653650 1545633 1393930 1207889 1007946 821606 678651 606245 619518 
1889.043 717878 883323 1089387 1305984 1509490 1685016 1821215 1907967 
1892.900 1933593 1884605 1754740 1551486 1303625 1054444 856331 750504 
1896.758 754985 863104 1046705 1266604 1482592 1666788 1807839 1911994 
1900.615 1995535 2076529 2165430 2261044 2350283 2414417 2437507 2411118 
1904.473 2337790 2229737 2105029 1979026 1863108 1759763 1663495 1564222 
1908.330 1453867 1330911 1203670 1090118 1009042 975068 991474 1048665 
1912.187 1128187 1212043 1286842 1349390 1406495 1470523 1550954 1649392 
1916.045 1753609 1840680 1885703 1870728 1797592 1691535 1591856 1531601 
1919.902 1529639 1583343 1672808 1765818 1828302 1835024 1778794 1674804 
1923.760 1552683 1448747 1391005 1394263 1459918 1577656 1729324 1894988 
1927.617 2058385 2209188 2342321 2457966 2555978 2633309 2682749 2694518 
1931.474 2658778 2571676 2438340 2271536 2090879 1915455 1753908 1603463 
1935.332 1449612 1275743 1070387 836976 593902 370231 193313 78799 27137 
1939.672 27667 64549 125993 211115 325133 472914 650377 836445 999743 
1944.011 1109949 1148618 1119051 1047901 974703 934191 945647 999876 1062216 
1948.351 1081017 1011035 829507 548714 212838 -113403 -360249 -478887 
1952.208 -451580 -300752 -78023 144488 300265 348477 283885 139483 -21139 
1956.548 -117212 -81435 124999 498655 995924 1539615 2039043 2418482 2630476 
1960.887 2675648 2591509 2441806 2289423 2176852 2121677 2117515 2140823 
1964.745 2164931 2172190 2154608 2111788 2048498 1966078 1862875 1742265 
1968.602 1614837 1500147 1428369 1430862 1525416 1710296 1952964 2200530 
1972.460 2388862 2466064 2409386 2229737 1964713 1664792 1382695 1152571 
1976.317 988120 887008 841790 847566 905701 1014256 1159847 1309840 1422385 
1980.657 1453302 1377942 1200879 961420 721463 552397 511559 620546 864166 
1984.996 1197955 1564787 1906236 2178817 2359444 2444138 2448470 2397158 
1988.854 2321367 2252151 2215283 2226639 2286558 2373870 2447603 2466197 
1992.711 2392960 2218913 1963015 1669682 1387216 1156890 997817 907262 
1996.568 872599 884087 948104 1090716 1345302 1731120 2239129 2820862 
2000.426 3398668 3881652 4197059 4310556 4238245 4032220 3760412 3476784 
2004.283 3202086 2921824 2603609 2221544 1776165 1301830 856032 502204 
2008.141 280305 199280 236873 353087 504991 663784 819946 979552 1154099 
2012.480 1345136 1538783 1708200 1819751 1845605 1777064 1627807 1432890 
2016.338 1238691 1093539 1032755 1070952 1199383 1394096 1632397 1894356 
2020.195 2171025 2462198 2765838 3071526 3357795 3589959 3728696 3741061 
2024.053 3609638 3341801 2976101 2574343 2206524 1943345 1833227 1894090 
2027.910 2106161 2414617 2730727 2952982 3000756 2830668 2458766 1959421 
2031.767 1456227 1084670 947905 1086132 1454066 1937188 2386263 2673747 
2035.625 2723725 2536680 2175187 1745458 1350952 1058696 897633 859186 
2039.482 914235 1028704 1178751 1345003 1512349 1666888 1789407 1862343 
2043.340 1878915 1844108 1776997 1704708 1651654 1631532 1647397 1693298 
2047.197 1762458 1853025 1965944 2098536 2239495 2361776 2429010 2402689 
2051.054 2256614 1985849 1611810 1176259 731220 330538 13916 -194983 -288435 
2055.394 -272375 -161962 23989 267739 548980 849691 1153701 1445988 1716650 
2059.734 1961152 2179117 2372504 2543313 2691751 2816460 2915320 2988078 
2063.591 3035089 3058279 3059847 3038292 2990013 2912084 2802153 2661212 
2067.448 2494922 2310308 2114285 1913591 1712824 1515973 1328750 1158219 
2071.306 1010271 889532 796609 727370 675963 636308 604619 581593 569981 
2075.646 572005 588361 615436 646794 675332 695974 706096 706893 700355 
2079.985 687412 667866 640190 603060 558170 510730 468602 440010 431420 
2084.325 446379 485552 548781 637137 752761 899127 1077662 1284283 1507195 
2088.664 1726430 1917518 2054457 2118780 2103797 2017405 1881178 1724434 
2092.522 1579352 1471786 1415471 1408058 1434020 1466633 1480198 1458521 
2096.379 1400578 1321339 1246832 1203902 1208753 1261819 1345568 1433621 
2100.237 1499316 1524918 1508359 1462411 1406495 1357134 1322269 1297045 
2104.094 1267501 1218223 1139714 1032623 908059 781904 668264 575389 503133 
2108.434 445815 395800 348809 306664 275663 264987 283554 335578 420243 
2112.773 531596 659968 794219 924096 1041723 1141242 1220815 1279897 1319411 
2117.113 1340782 1344271 1328584 1292691 1235501 1158219 1065106 962018 
2120.970 855501 750736 649614 551203 455102 363798 283918 227690 209988 
2125.310 241746 328482 463626 631164 806302 960822 1070188 1116859 1094204 
2129.649 1006252 866789 695310 513981 345360 207070 109389 53150 32671 36150 
2134.471 51891 73729 101368 140809 199347 281962 386713 505057 625424 738755 
2139.293 842188 941529 1047070 1168750 1307879 1453169 1578754 1653051 
2143.150 1643439 1527611 1302694 985263 609364 219634 -135430 -413978 
2147.008 -586804 -642159 -590113 -453302 -267673 -70834 105975 239161 316247 
2151.347 336341 307261 240089 152907 68493 12988 19450 118602 330273 655289 
2156.169 1066601 1509024 1902409 2166030 2234866 2091212 1774435 1379670 
2160.027 1028405 830071 867984 1170677 1712292 2411218 3153389 3809379 
2163.884 4264846 4452100 4360053 4040414 3582810 3097589 2673047 2347784 
2167.741 2108924 1905937 1677997 1383626 1026445 652567 335777 144853 119994 
2172.081 254809 507545 812377 1109584 1368701 1590426 1799056 2022631 
2175.938 2272769 2532181 2760103 2905913 2932199 2827099 2608308 2312540 
2179.796 1985882 1666489 1374917 1116892 884585 664149 442797 211612 -30349 
2184.135 -274759 -502882 -684771 -782715 -760125 -589121 -263633 195833 
2187.993 738622 1294984 1787677 2149180 2340688 2357445 2229137 2005055 
2191.850 1747122 1512283 1338688 1244971 1227859 1266804 1331708 1396889 
2195.708 1443195 1464905 1467664 1463309 1460915 1461347 1452836 1414074 
2199.565 1325061 1173402 964541 725246 494939 311505 201866 168751 192087 
2203.905 235116 259019 237602 168552 72039 -17925 -62883 -38168 59446 211115 
2208.727 384160 540122 647656 692921 677423 617129 534150 453609 396397 
2213.066 378290 410525 498887 643442 837142 1064508 1300867 1517403 1687211 
2217.406 1790205 1820816 1786945 1709431 1615169 1527777 1463142 1425111 
2221.263 1406329 1392567 1372424 1337259 1288039 1234039 1189017 1166192 
2225.121 1177322 1226696 1311368 1422385 1543605 1656045 1741632 1784549 
2228.978 1777929 1725365 1640811 1545001 1462910 1414872 1411714 1454432 
2232.835 1534660 1638716 1751347 1860612 1956758 2031553 2077461 2087316 
2236.693 2057619 1991774 1903574 1815958 1755006 1743895 1789873 1882375 
2240.550 1992739 2085352 2127737 2103264 2016440 1891594 1762092 1655612 
2244.408 1586569 1550854 1530105 1500512 1446520 1364746 1267069 1173136 
2248.265 1101346 1060589 1046273 1041158 1022692 973508 886378 768395 640555 
2252.605 531994 469000 471421 544999 680177 854704 1038402 1203204 1326723 
2256.944 1399382 1424778 1418163 1399913 1388246 1395659 1423615 1464805 
2260.802 1507162 1540878 1561827 1574929 1590726 1621422 1673839 1745857 
2264.659 1824010 1889297 1922511 1911328 1855654 1768613 1672043 1588165 
2268.517 1535026 1519930 1536921 1570939 1604194 1621455 1615269 1587965 
2272.374 1548825 1509789 1480830 1465104 1458289 1452038 1435150 1398916 
2276.231 1341314 1266305 1183435 1105963 1047801 1020367 1031028 1081349 
2280.089 1166159 1273782 1386385 1484587 1549757 1569276 1539748 1468262 
2283.946 1371394 1268864 1180711 1119848 1089753 1084538 1093174 1101678 
2287.804 1099120 1080053 1044513 997717 946942 900854 866490 848762 849924 
2292.143 868681 899990 936581 970652 996488 1013160 1025814 1044446 1080917 
2296.483 1143634 1234272 1345834 1463741 1569309 1646665 1685548 1683818 
2300.340 1646732 1584208 1506963 1424346 1344006 1272154 1215565 1181176 
2304.198 1173867 1195695 1242579 1304522 1367239 1415770 1438741 1431826 
2308.055 1397952 1345634 1287440 1235368 1199018 1185396 1198121 1238558 
2311.913 1304290 1390274 1486515 1580017 1657142 1705739 1718579 1695992 
2315.770 1645667 1579984 1513812 1461347 1432391 1432025 1459951 1510254 
2319.627 1572502 1634060 1681756 1704242 1695527 1655346 1589961 1509124 
2323.485 1422717 1337857 1257665 1181575 1108986 1042786 990046 961353 
2327.342 967331 1013260 1094503 1196360 1295881 1369466 1401077 1386518 
2331.200 1334101 1261852 1189781 1131642 1094237 1075802 1070321 1071849 
2335.057 1077064 1086531 1103272 1130446 1170146 1222310 1285214 1355639 
2338.915 1428668 1498185 1555576 1591557 1599206 1576925 1531368 1476441 
2342.772 1431327 1412213 1426773 1469925 1525184 1569542 1583077 1556607 
2346.629 1493464 1406495 1310371 1218622 1139781 1076997 1030995 1001536 
2350.487 988950 994828 1021629 1069723 1135030 1209019 1277371 1324297 
2354.344 1338023 1314326 1259028 1188785 1127854 1100017 1124300 1207590 
2358.202 1341878 1504635 1664759 1791170 1861677 1871061 1832195 1773537 
2362.059 1726529 1715851 1750581 1819951 1896585 1947139 1945708 1881544 
2365.917 1764421 1619227 1478935 1371427 1311069 1296446 1312498 1338223 
2369.774 1354176 1350454 1327354 1294353 1263846 1246434 1246799 1261088 
2373.631 1279132 1288271 1277238 1239389 1175794 1094038 1006983 928579 
2377.489 871171 842122 841823 863834 896438 925591 937910 924329 882958 
2381.828 819216 744065 673076 622006 601733 618091 668430 744165 831698 
2386.168 917190 989282 1041059 1070852 1081349 1077662 1064674 1045377 
2390.025 1021065 991374 955974 915895 874159 836047 807165 792526 794618 
2394.365 812477 841425 873927 901983 918452 919514 905967 883489 861344 
2398.705 849459 856298 885581 934954 996156 1058330 1109982 1143535 1157156 
2403.044 1155295 1146126 1138850 1139947 1150744 1167455 1182140 1186093 
2406.902 1173169 1141375 1093340 1036110 978555 927915 889465 864299 850056 
2411.241 841690 834055 823133 807331 788045 768129 750902 737825 727370 
2415.581 715157 696605 668396 631795 592774 561587 548482 559663 593902 
2419.920 642679 691693 726308 737560 725445 699890 675963 670089 692722 
2424.260 744563 816626 894147 961287 1006551 1026246 1023854 1008046 987688 
2428.600 968626 952354 935784 913438 880302 835084 781008 725578 679016 
2432.939 652767 654326 687180 748147 828378 915065 994629 1056537 1095001 
2437.279 1110514 1107192 1092443 1072048 1049595 1026246 1001835 976131 
2441.136 951159 929675 914434 906133 902680 899360 891457 876550 856796 
2445.476 837607 826785 829573 846504 871769 895043 905469 895309 862772 
2449.815 812543 753690 696372 647756 612052 590219 581361 584679 600605 
2454.155 630202 673673 729594 794352 862440 928944 989780 1042885 1087760 
2458.495 1123901 1150843 1166990 1171010 1161774 1140512 1109683 1072480 
2462.352 1032290 991108 948934 905237 859319 810917 760959 711672 665343 
2466.692 624893 593106 572900 566796 576251 600206 634582 672445 704902 
2471.031 724184 727005 715223 695509 677257 668562 672146 684591 697999 
2475.371 703574 695509 674370 646993 624362 616664 629041 659802 701350 
2479.710 742240 771448 782004 771780 743102 701550 654326 608833 572369 
2484.050 552331 554354 582223 635146 707689 789705 867885 930007 966667 
2488.390 974105 953849 912209 856796 795514 736066 685056 649017 634848 
2492.729 647424 689038 756611 841524 930040 1006850 1059925 1082843 1077529 
2497.069 1052750 1021862 996621 984334 985795 995559 1004824 1005787 995094 
2501.408 975766 956704 949167 963545 1005322 1072181 1153568 1234870 1298972 
2505.748 1331309 1324529 1278568 1200447 1101711 995559 893217 802352 727005 
2510.088 667932 624097 594135 576484 569947 572469 581361 593438 605582 
2514.427 615602 622968 628344 632492 636042 638465 638465 634383 626652 
2518.767 618257 615304 624959 654094 706395 780045 867486 956904 1035711 
2523.106 1092510 1121775 1123602 1104900 1074938 1044480 1021198 1008278 
2526.964 1003562 1001902 996522 982075 956970 923764 889034 861377 849027 
2531.303 857526 888170 936515 993566 1048167 1088158 1104468 1093672 1058363 
2535.643 1005987 947606 893682 850322 818319 792726 765440 729395 681637 
2539.983 625258 568886 523037 495636 489466 500811 521810 544766 566298 
2544.322 589954 624495 679414 759964 861809 970851 1065006 1122639 1129383 
2548.662 1082910 993865 883057 775100 689038 636507 619020 630667 662224 
2553.001 705864 756910 813307 874359 937810 998614 1050624 1087261 1105431 
2557.341 1106627 1096761 1084538 1078127 1082910 1099353 1123436 1147189 
2561.198 1162006 1161176 1141110 1102807 1051222 994263 940267 897235 870972 
2565.538 863934 876317 906067 949665 1002499 1060091 1117058 1167820 1207059 
2569.878 1230683 1236664 1226530 1205198 1180013 1158684 1147555 1149083 
2573.735 1162139 1182405 1204234 1223107 1236664 1245071 1250089 1254176 
2577.593 1258629 1263780 1269495 1275610 1282921 1292791 1306649 1324197 
2581.450 1343374 1359428 1366075 1357866 1330545 1283685 1220117 1147023 
2585.307 1073643 1010171 966268 948137 957634 990942 1039464 1091513 1135163 
2589.647 1162372 1171109 1165495 1153800 1145960 1148252 1161076 1179017 
2593.504 1193270 1196294 1185196 1163667 1140877 1128619 1135296 1164166 
2597.362 1210946 1266637 1319611 1360226 1382928 1386451 1372657 1345036 
2601.219 1308112 1265242 1221911 1184166 1159249 1153966 1172471 1214468 
2605.077 1274214 1341679 1404900 1452570 1478137 1479466 1461015 1430530 
2608.934 1398451 1375116 1368402 1381532 1413177 1456759 1502042 1538484 
2612.792 1558602 1560165 1547662 1531169 1522790 1531269 1558768 1599804 
2616.649 1643472 1676434 1689938 1682155 1658872 1631200 1609549 1600137 
2620.506 1602166 1608684 1610280 1600071 1576426 1544503 1512981 1491801 
2624.364 1486980 1499581 1524984 1556075 1585504 1608252 1622519 1629703 
2628.221 1632364 1632863 1632530 1631665 1629005 1622985 1612176 1595381 
2632.079 1572967 1547063 1521327 1501377 1492732 1499714 1522956 1559167 
2635.936 1601035 1639947 1668950 1684084 1686712 1681556 1675170 1672343 
2639.793 1674671 1680525 1685880 1687377 1683452 1675137 1665657 1658572 
2643.651 1655113 1654947 1656211 1656943 1656477 1656211 1658406 1665025 
2647.508 1676267 1690071 1702678 1710795 1713024 1710695 1706870 1705340 
2651.366 1708034 1714454 1722172 1727893 1730655 1732451 1737907 1753176 
2655.223 1782553 1826406 1879813 1934093 1979258 2006753 2012512 1997965 
2659.081 1969007 1933959 1901012 1876452 1863341 1861844 1870196 1885836 
2662.938 1906037 1928102 1949669 1968274 1981522 1987547 1985250 1975198 
2666.795 1959321 1940915 1923309 1909931 1903042 1903042 1909132 1919549 
2670.653 1932129 1945242 1958389 1971736 1986049 2002026 2019436 2037246 
2674.510 2053525 2066508 2074998 2079459 2081723 2084020 2088615 2095939 
2678.368 2104063 2109291 2106727 2092643 2065277 2026693 1982121 1939218 
2682.225 1906236 1888998 1890495 1909931 1942347 1980590 2016973 2044536 
2686.083 2058851 2058651 2045768 2024263 1999497 1977062 1960919 1953397 
2689.940 1954162 1961152 1971170 1980557 1986648 1988246 1985849 1981389 
2693.797 1978160 1979125 1986248 1999829 2017971 2036546 2050062 2053525 
2697.655 2042738 2016973 1978426 1932595 1886302 1845971 1816024 1797525 
2701.512 1788143 1783252 1778028 1769245 1756370 1741766 1729889 1725498 
2705.370 1731819 1750315 1779392 1816058 1856054 1895554 1931663 1961984 
2709.227 1985882 2002925 2012978 2016640 2014409 2007519 1997200 1984884 
2713.084 1972235 1960719 1952165 1948204 1950068 1958389 1972635 1990476 
2716.942 2008151 2021167 2025727 2019536 2003424 1980889 1957457 1938086 
2720.799 1926571 1923409 1925872 1929400 1929666 1924175 1913858 1902908 
2724.657 1896852 1901245 1918517 1947572 1983885 2020967 2052492 2073899 
2728.514 2083954 2084453 2078760 2070470 2062214 2055089 2048831 2042971 
2732.372 2037379 2032618 2029955 2030121 2032885 2037046 2039942 2038810 
2736.229 2032052 2019735 2003724 1987180 1973766 1966411 1966710 1974565 
2740.086 1988445 2006187 2024662 2041040 2052226 2056154 2051194 2037745 
2743.944 2017771 1995136 1974532 1960752 1956459 1961984 1974898 1990775 
2747.801 2004589 2012745 2013777 2009050 2001427 1994204 1990043 1989444 
2751.659 1991108 1992373 1990642 1984218 1972968 1958689 1944577 1934392 
2755.516 1931430 1938586 1956891 1985616 2022465 2064178 2106327 2145218 
2759.374 2177985 2203360 2221677 2234300 2243125 2249887 2255249 2259279 
2763.231 2261078 2259745 2254483 2245290 2232534 2217481 2201728 2187609 
2767.088 2177352 2173322 2177085 2188974 2207890 2230802 2254183 2274201 
2770.946 2288557 2296784 2300548 2302647 2305711 2311341 2319269 2327597 
2774.803 2333893 2336924 2337124 2337324 2341222 2353048 2375402 2408386 
2778.661 2449503 2494922 2540313 2581876 2617775 2647711 2672847 2694785 
2782.518 2715356 2735462 2755368 2774575 2792616 2809023 2823764 2837938 
2786.375 2852779 2870056 2890870 2915653 2943674 2973665 3004192 3034622 
2790.233 3065620 3099657 3139772 3188668 3247251 3313821 3384475 3453271 
2794.090 3514762 3564870 3602321 3628515 3647226 3662931 3679538 3700223 
2797.948 3726758 3759510 3798449 3842806 3891648 3943705 3997306 4051082 
2801.805 4104062 4155977 4207966 4261332 4317817 4378427 4443364 4512026 
2805.663 4583043 4654942 4726317 4795728 4861866 4923121 4977983 5025578 
2809.520 5066005 5101373 5135202 5172420 5217957 5275506 5346950 5432128 
2813.377 5529303 5636133 5750510 5870963 5996623 6127259 6262539 6401897 
2817.235 6544596 6689495 6835924 6983042 7130243 7276820 7422335 7566313 
2821.092 7709429 7853807 8002789 8161072 8334140 8526774 8742211 8981332 
2824.950 9242686 9522621 9816293 10119151 10427753 10741261 11061488 
2828.325 11392699 11740536 12109675 12503133 12920809 13359387 13814074 
2831.700 14280298 14756175 15243521 15747562 16276132 16837204 17436492 
2835.075 18077884 18763470 19495294 20278828 21123224 22041484 23049768 
2838.451 24162744 25392276 26745622 28226088 29833760 31568788 33433036 
2841.826 35429760 37562284 39832308 42235780 44761336 47389792 50091364 
2845.201 52832336 55572984 58270552 60885020 63376160 65706408 67842992 
2848.576 69754216 71411576 72788136 73858560 74599512 74990768 75017736 
2851.952 74673840 73963912 72905848 71530016 69879704 68007032 65964980 
2855.327 63809156 61588724 59344900 57111660 54912864 52764948 50678612 
2858.702 48660360 46716120 44852952 43078052 41400352 39827480 38363244 
2862.077 37007724 35756348 34602540 33539366 32563422 31674628 30876860 
2865.453 30175132 29573482 29072310 28667062 28348554 28104010 27919104 
2868.828 27777296 27661700 27555102 27438226 27293646 27106262 26865342 
2872.203 26567384 26216658 25824402 25405658 24977808 24557076 24156018 
2875.578 23784796 23450122 23156454 22907516 22706200 22554984 22455914 
2878.954 22410590 22419384 22481246 22593516 22751832 22949572 23180500 
2882.329 23438232 23718792 24021386 24348686 24705658 25097888 25528914 
2885.704 25999166 26504654 27038166 27592174 28159690 28737680 29327078 
2889.079 29931866 30557190 31206096 31878896 32571316 33275750 33982800 
2892.455 34684756 35375840 36054348 36722484 37384788 38046952 38714720 
2895.830 39392880 40084856 40793260 41519588 42265252 43031184 43817228 
2899.205 44623104 45447432 46288328 47144264 48014212 48898332 49798448 
2902.580 50717936 51661092 52633272 53639568 54684728 55772424 56904280 
2905.956 58080792 59299964 60557800 61849204 63168064 64508700 65866836 
2909.331 67240752 68630664 70038872 71467824 72918432 74388720 75871976 
2912.706 77357464 78830328 80273640 81670936 83004840 84260048 85421016 
2916.081 86470624 87390256 88158944 88754176 89156160 89348192 89319824 
2919.457 89068208 88597432 87916760 87039984 85984520 84768632 83412088 
2922.832 81934992 80354888 78688040 76948920 75150824 73308992 71440600 
2926.207 69564464 67700504 65865404 64070172 62319004 60610600 58939328 
2929.582 57300508 55691732 54114560 52573464 51073448 49617592 48206544 
2932.958 46838084 45509424 44218308 42965152 41752656 40584648 39465052 
2936.333 38395676 37376156 36403780 35475600 34588760 33742044 32935578 
2939.708 32170034 31445872 30761932 30115004 29500314 28913022 28349156 
2943.083 27807110 27288494 26798024 26342502 25929450 25565602 25255960 
2946.458 25002692 24805244 24659994 24560934 24500210 24468346 24455444 
2949.834 24452114 24450678 24446226 24436446 24421026 24400520 24373744 
2953.209 24336734 24281440 24197634 24074408 23902340 23677222 23400674 
2956.584 23080238 22727218 22355260 21976270 21598340 21225504 20856814 
2959.959 20487740 20111832 19722414 19314534 18885476 18435476 17967364 
2963.335 17485818 16995434 16500302 16002605 15503041 15002438 14501967 
2966.710 14005253 13518473 13048798 12603609 12187670 11802497 11445289 
2970.085 11110230 10790715 10480362 10175556 9875370 9581083 9295152 9020403 
2973.943 8758981 8511974 8279663 8061484 7856169 7662247 7478053 7302327 
2977.800 7134352 6974153 6822292 6679199 6545000 6417836 6295248 6174476 
2981.657 6053872 5933469 5815585 5704044 5602567 5513363 5436087 5368016 
2985.515 5305424 5244685 5184290 5124406 5067480 5015657 4971045 4934415 
2989.372 4906097 4886192 4876207 4878285 4895810 4931398 4986463 5060642 
2993.230 5152235 5259039 5378785 5510175 5652078 5803294 5962324 6126250 
2997.087 6292861 6460410 6628259 6797284 6968731 7142975 7318569 7492245 
3000.945 7659178 7814942 7956284 8081906 8192406 8288579 8370823 8437508 
3004.802 8485484 8511264 8511906 8486193 8435244 8361567 8268248 8158236 
3008.659 8033334 7894498 7741775 7575451 7396079 7204485 7001696 6788836 
3012.517 6567604 6340029 6108944 5877747 5650265 5429813 5219131 5020148 
3016.374 4833352 4658760 4495989 4343821 4200471 4063724 3930799 3799485 
3020.232 3668645 3539047 3412827 3293255 3182593 3080736 2985309 2891570 
3024.089 2794483 2691217 2582209 2471529 2365974 2272769 2196034 2136361 
3027.947 2089913 2050395 2011081 1967276 1917785 1865005 1813662 1768413 
3031.804 1732817 1707169 1689439 1675868 1662963 1647763 1629204 1607653 
3035.661 1584241 1559865 1534594 1507827 1478336 1445921 1411681 1378407 
3039.519 1350819 1333370 1328717 1336660 1353246 1371693 1383858 1383459 
3043.376 1367804 1338721 1302030 1265607 1236930 1220748 1217691 1224569 
3047.234 1236299 1246932 1251617 1248062 1236266 1218555 1198520 1181143 
3051.091 1170810 1171242 1184997 1211644 1248095 1288504 1326391 1355074 
3054.948 1371028 1374119 1368169 1358730 1351816 1351384 1357766 1368003 
3058.806 1376778 1379172 1370895 1350121 1317118 1274181 1224137 1170644 
3062.663 1117689 1069723 1031194 1006385 997950 1006252 1029301 1063279 
3066.521 1102807 1143435 1181807 1216728 1248394 1278235 1307148 1336095 
3070.378 1364746 1391437 1413675 1427804 1429167 1413410 1376712 1317351 
3074.236 1237528 1143036 1043018 948436 869777 814369 784991 780012 793755 
3078.575 818817 847334 873429 892951 903809 904938 896737 880069 857261 
3082.915 831465 807132 788809 780576 784493 800095 823498 849890 872865 
3087.254 887473 891225 884585 871005 855866 845043 843151 852281 871703 
3091.594 898131 926587 951723 969423 976596 972113 955941 929243 893815 
3095.934 852148 808095 766337 732382 711937 709382 726574 761889 811149 
3100.273 867353 922370 969257 1001736 1016149 1010769 985463 941894 883755 
3104.613 816394 746256 681007 627415 590120 571042 569052 580465 600439 
3108.952 624495 648685 669657 684591 690498 684691 666273 636109 598680 
3113.292 560558 530136 514345 516701 536506 569118 607838 646329 680675 
3117.632 709847 734805 757076 776726 792394 800991 799896 788178 767864 
3121.971 742704 717580 695609 677589 661925 645367 625557 602496 578740 
3126.311 558734 546724 545098 552795 566066 579270 587764 589324 585276 
3130.650 578872 574991 577213 586570 601401 618058 632658 642148 646063 
3134.990 645433 642579 639991 638498 637934 636706 632458 623765 609829 
3139.330 591348 570512 550340 535112 529373 537501 562649 605847 664182 
3143.669 731088 796643 848861 876982 874359 839864 778452 700056 616996 
3148.009 540122 477657 433244 407209 397525 401803 418651 447407 487443 
3152.348 537037 592940 650377 704205 750039 784792 807763 819348 820444 
3156.688 811879 794186 767996 734506 696439 656981 620778 590949 569947 
3161.028 558070 554454 557506 565236 576915 592011 611023 634383 662290 
3165.367 694547 729793 765573 798667 824228 837607 835217 814767 777556 
3169.707 727536 671317 616067 567625 529838 504394 490793 488338 496996 
3174.046 517232 548947 590949 638630 684392 719969 737161 731519 703740 
3178.386 659237 606710 554885 511061 478586 458087 448103 446478 452183 
3182.726 464555 483031 506716 533487 561222 587167 609630 627348 639062 
3187.065 643608 638697 622371 593637 554388 509668 466612 433974 418319 
3191.405 421968 442631 474009 508507 539060 562582 579105 591480 603392 
3195.744 616697 630899 643508 651174 651738 645068 633620 620911 610625 
3200.084 604885 603989 606743 611289 616564 621807 627282 633520 640489 
3204.424 646860 651041 650908 644537 631430 612052 587864 561156 534548 
3208.763 510531 492253 482467 484225 499351 528643 569914 618389 667268 
3213.103 708021 732780 737062 719936 685354 640489 593902 553226 522937 
3217.442 504327 495238 492120 491291 490395 489101 488007 487940 489201 
3221.782 491058 491755 489566 483097 472018 457059 439413 420508 401869 
3226.122 384989 371326 362372 359421 362438 369833 379384 387974 393910 
3230.461 397624 402267 412151 431254 461106 499351 539458 573099 593106 
3234.801 595595 581527 556113 527748 503830 489400 485851 491556 503332 
3239.140 517862 533155 548051 561355 571739 577014 575057 565004 547885 
3243.480 527184 507777 494906 491556 498058 512720 531961 552098 570346 
3247.820 585608 597353 605880 610957 612317 610161 604686 596524 586603 
3252.159 574957 560359 541681 517132 486912 453775 423327 402002 395601 
3256.499 406678 433211 468735 503597 528511 536838 527084 502105 469232 
3260.838 436893 411653 397492 394175 398453 405484 411454 414406 414936 
3265.178 416230 422366 436661 460243 490992 524364 554288 574725 581593 
3269.518 574028 554122 526189 495503 466678 442697 424223 410426 399747 
3273.857 390494 381938 374277 368374 364959 365025 368805 375902 385121 
3278.197 394706 402897 407706 407773 403096 395303 387078 382203 383928 
3282.536 393446 409862 429894 448535 461669 465981 461006 449397 435135 
3286.876 422498 415003 414107 419049 426909 434438 437490 433078 419381 
3291.216 396629 367180 335280 306432 286339 278813 285079 303315 328582 
3295.555 354745 376499 390527 397060 398453 397956 398188 399481 399150 
3299.895 394076 381474 361377 337933 317672 308521 316180 342641 384458 
3304.234 434206 481970 518094 536406 534913 516203 486083 452084 420608 
3308.574 396265 380545 371956 367015 361410 352092 337800 319430 299568 
3312.914 282294 271386 268601 274337 287334 304840 324271 344067 363632 
3317.253 383530 404125 425682 447705 468635 486846 501242 511791 519288 
3321.593 524862 529506 533421 535975 535942 532094 524264 512853 499484 
3325.932 486348 475700 469663 469332 475501 487874 505223 525094 544534 
3330.272 559464 566464 564042 552596 535212 516634 501806 494143 494807 
3334.612 501408 510166 516800 518459 514777 507844 501010 497162 497726 
3338.951 501939 507711 512654 515838 517331 519156 523369 531463 543804 
3343.291 559563 577014 594765 612052 629008 646063 663220 680078 695045 
3347.630 706760 714460 717181 715389 708851 697468 680775 658740 632127 
3351.970 603193 575720 553293 538762 532259 531132 530568 526354 515606 
3356.310 498920 479946 464522 457258 461072 475369 497096 522705 549212 
3360.649 575555 602197 629704 657047 681372 697501 700222 686582 657080 
3364.989 615735 569748 526587 491158 465782 448667 436594 425914 415036 
3369.328 404523 396828 394507 399216 410459 425848 441569 454538 462432 
3373.668 465318 464456 462499 461537 462366 464223 465252 463195 456495 
3378.008 445715 433609 424389 422863 432913 455666 489499 529970 571640 
3382.347 610459 644404 673938 702114 731818 764013 797207 826287 845077 
3386.687 848596 834652 804842 765042 722757 685188 658043 643243 640256 
3391.026 645864 656185 666903 674104 674702 666903 650576 626818 599145 
3395.366 572237 550804 538994 538496 548449 565137 584314 601832 615635 
3399.706 625523 632923 639327 645599 651207 654359 653065 645931 633023 
3404.045 616034 597220 579635 565435 556079 552596 554686 561919 573232 
3408.385 587200 601865 615669 627415 636374 643143 648751 654094 659569 
3412.724 664447 666804 664746 656948 643342 625358 605847 587963 573929 
3417.064 565269 561355 560791 561885 563279 565369 569383 578142 593936 
3421.404 618224 649680 684359 716020 736796 740414 723919 688938 642115 
3425.743 594367 557838 541781 550771 582655 629240 678684 719903 745260 
3430.083 752562 745691 732017 720666 718077 727603 747650 773473 797904 
3434.422 813273 814402 798103 764943 719803 670553 625888 594699 583086 
3438.762 591978 618058 653430 688607 714692 726906 724251 710709 692390 
3443.102 675199 662855 656151 652833 649846 644935 637038 627315 617527 
3447.441 609530 603989 600240 597519 595694 596159 601998 617129 644803 
3451.781 686748 742140 807232 876317 943555 1002931 1050359 1083508 1101678 
3456.120 1105863 1097293 1077330 1047403 1008212 960424 904838 843085 778021 
3460.460 713829 656151 610127 580531 569748 577081 599211 630235 664149 
3464.800 695875 722425 743268 760561 776826 793954 812145 829075 841126 
3469.139 843383 832860 808294 771647 726640 678186 631728 590850 558833 
3473.479 537999 530634 539226 565336 609298 667700 733876 798535 851019 
3477.818 883522 891856 877646 847898 812709 782269 763615 758802 765075 
3482.158 776693 787182 792925 793024 788443 781074 771813 759831 743501 
3486.498 721794 695742 669724 650178 643575 654393 682567 723288 768129 
3490.837 807066 831930 838337 826917 802385 772876 746820 730457 727072 
3495.177 735966 753060 772643 789705 800891 805140 803580 797970 789074 
3499.516 776394 757541 729594 690133 639659 582223 525061 477458 446180 
3503.856 434936 441702 460873 484822 507180 524497 536340 545198 554553 
3508.196 567360 584878 605648 625988 642546 652667 654824 650344 641451 
3512.535 630202 618920 608601 599477 591082 582389 572237 559563 543904 
3516.875 525094 504228 482898 463361 447938 438717 436860 442896 456329 
3521.214 476098 500546 528710 558004 587067 613578 635047 649382 654359 
3525.554 648785 632923 608767 581361 556743 542013 542842 560824 593371 
3529.894 633089 670454 695410 701052 685155 651605 608833 567459 538165 
3534.233 528444 540354 570578 611919 654227 688374 709249 715854 711373 
3538.573 701483 692788 690830 699392 718973 747517 779879 809390 828444 
3542.912 830204 809887 766005 701350 621973 536075 452813 379152 319430 
3547.252 275862 249040 238464 243669 263860 297546 341713 392119 442233 
3551.592 485154 515573 530700 532027 523767 512023 501972 497394 499451 
3555.931 508009 521511 538463 557008 576085 594334 610857 623765 631463 
3560.271 632923 627747 617527 605051 594732 590850 597088 615469 646097 
3564.610 686217 730656 772311 802618 814369 804145 774137 730092 680177 
3568.950 630766 585541 546657 515440 491855 476032 467773 465384 466081 
3573.290 467209 465152 457324 443228 424024 403163 385121 374344 373315 
3577.629 382634 399581 419613 437291 448070 450094 444554 435632 428468 
3581.969 427407 434936 450624 472350 497892 526852 561189 604951 661859 
3586.308 730689 803116 862473 889731 874724 819448 737493 646893 564905 
3590.648 502370 463029 444554 439214 437689 431619 416893 394640 370298 
3594.988 348942 333986 324901 318501 311803 304011 297380 296485 305968 
3599.327 327852 360482 398619 434107 459513 470924 467938 454107 434670 
3603.667 416064 402997 399747 408867 431188 465020 505754 546458 578773 
3608.006 596192 596557 582887 562383 542311 528278 522440 523933 529672 
3612.346 537169 543937 548947 552264 552928 548416 535477 510265 469995 
3616.686 415268 351230 286571 234088 205545 206474 234519 279277 328814 
3621.025 372619 405816 427540 440276 447938 454074 461603 471421 482898 
3625.365 493646 500811 501309 493679 478785 461470 448866 447838 458717 
3629.704 474672 486448 487907 477856 459613 439281 423958 420707 433941 
3634.044 463295 503531 546857 584446 609032 615967 603624 573298 530070 
3638.384 482202 439911 412184 405484 420475 452448 490959 524032 542146 
3642.723 540852 522705 495736 469763 452017 445881 449397 456163 457988 
3647.063 448866 428899 404954 386249 377958 376930 374509 362206 339159 
3651.402 311571 287997 275331 276094 289621 312566 340685 369668 395833 
3655.742 416926 430956 436826 433178 419281 396165 367114 338264 316711 
3660.082 309449 320723 350202 392882 441768 489698 531132 564274 588925 
3664.421 605714 615138 616399 608535 591812 568488 542311 519355 505356 
3668.761 503564 514080 533122 555449 578740 603624 631695 663950 698297 
3673.100 729030 747285 742804 708121 647391 578806 525027 497792 492452 
3677.440 496167 496996 488438 469531 444986 421570 405716 399979 402533 
3681.780 408967 414771 417855 419480 424157 437755 465152 508507 565469 
3686.119 630401 694248 744895 771116 765872 730523 675598 616963 567559 
3690.459 533553 514047 503763 498323 495139 494210 497759 507611 523501 
3694.798 543008 560227 568952 564075 545231 516203 486083 464787 459978 
3699.138 475899 511791 560724 612085 654293 677688 678983 661063 631065 
3703.478 596590 563013 533620 509137 489168 472018 455699 437888 417059 
3707.817 393213 368706 349240 342111 354148 388372 439911 496167 542245 
3712.157 567260 569914 558535 545596 542411 555648 586404 630766 681737 
3716.496 730158 766735 784726 780842 756113 715854 668231 621608 584546 
3720.836 563743 562649 580763 613147 651273 685520 707324 711440 696306 
3725.176 663950 619650 570876 525226 488471 463693 450160 444986 443924 
3729.515 442001 434405 417092 388604 351197 310908 277088 259152 263429 
3733.855 292506 345161 417490 502503 592343 678352 752794 810020 846139 
3738.194 858257 845873 811713 762453 707988 659105 624594 607772 605714 
3742.534 608767 603690 577048 525260 463494 419082 411952 445914 511857 
3746.874 595860 683761 761125 815464 836578 820942 774137 710842 647656 
3751.213 595827 558833 533387 513981 497461 483130 472781 469000 474009 
3755.553 489002 513981 546890 584513 622803 657578 685520 704603 714128 
3759.892 714493 707424 694979 679680 663386 646893 630103 612052 591281 
3764.232 566729 538463 507943 478155 451254 428535 409564 392285 375073 
3768.572 358061 343537 336009 340419 359122 389665 426180 460973 487177 
3772.911 500711 501275 491656 478155 467275 463958 470459 484391 500844 
3777.251 513184 515274 503199 476563 438949 396862 357265 325166 303514 
3781.590 293335 294595 307128 329742 360382 394772 428236 455600 474075 
3785.930 482865 483927 479648 472814 464887 456794 448568 440243 431851 
3790.270 423792 416197 409564 403627 398686 394971 393114 393479 396762 
3794.609 402002 407441 410990 410724 406612 401571 400510 407872 426976 
3798.949 458684 500645 546956 588196 613943 617494 601003 573464 545530 
3803.288 522971 506318 493579 481903 469597 457623 449331 449364 460873 
3807.628 482600 509801 536937 559795 576616 587565 594466 599477 604254 
3811.968 609397 614607 618622 619883 617991 613280 607738 604785 606975 
3816.307 614607 625557 635909 642347 643210 637403 625424 608833 590385 
3820.647 573862 562582 557738 557473 559198 560193 558833 554255 545795 
3824.986 533387 518326 502669 489765 483363 485618 496631 513947 533387 
3829.326 550207 559231 557307 543672 520847 494376 470327 453576 445881 
3833.666 446213 452117 461802 475004 493978 522407 563611 617394 677887 
3838.005 733643 771249 780178 757408 708320 644039 577247 519222 477790 
3842.345 456329 453974 465915 485718 507081 525459 539458 550174 559397 
3846.684 569151 580830 594101 608435 622603 635246 646661 657479 668396 
3851.024 680509 693551 704802 709116 700687 677224 643044 606909 574725 
3855.364 549544 531629 519852 513317 511526 513483 518459 525061 532060 
3859.703 538364 543406 548051 554122 563810 578640 598149 619352 637170 
3864.043 646495 644570 633056 617726 606146 604221 614540 636606 667169 
3868.382 699857 726308 738887 733842 713796 685952 656848 629339 603624 
3872.722 578341 552397 526985 504792 488139 478453 474473 473047 471421 
3877.062 467375 459447 448402 435931 424687 417623 416993 423095 434936 
3881.401 450259 466446 481406 493579 501541 503995 500214 490926 478055 
3885.741 464754 453444 444521 436196 426180 412880 396298 378323 363267 
3890.080 356071 361377 379782 407308 436229 459314 471886 473743 468337 
3894.420 460077 453410 451520 455799 466114 480742 497195 512786 524165 
3898.760 528909 526155 516933 504394 493579 489831 496532 515009 542046 
3903.099 571275 593670 601235 590551 564075 529307 495470 471056 461205 
3907.439 467839 489864 523170 562649 602562 638166 665874 684624 695178 
3911.778 699957 702213 704968 710079 717845 726574 733643 735900 731519 
3916.118 720467 704935 688408 674038 662987 653165 641053 623201 597917 
3920.458 566497 533354 504460 485519 480643 490859 514279 545695 577910 
3924.797 604354 620214 623997 617294 603856 587665 573332 564672 564241 
3929.137 573166 589788 610526 629738 641882 642878 631961 611820 587631 
3933.476 565203 548316 538762 536008 538994 546326 557871 574194 595595 
3937.816 621807 650908 679680 704736 723155 733444 735435 729826 717414 
3942.156 698231 671980 639062 601434 563146 530004 507644 500977 511327 
3946.495 536539 570213 604354 630103 641252 636109 617394 590087 560260 
3950.835 533686 513782 503531 504327 517032 541084 574393 612483 649150 
3955.174 677356 691195 687412 666737 633421 594798 558601 531065 515739 
3959.514 512886 519023 528975 537037 537966 528677 509436 483628 456495 
3963.854 433742 420343 418353 426810 442001 458850 472450 480311 482633 
3968.193 482169 482998 488239 499252 515175 533122 550506 565833 578640 
3972.533 589556 599145 606113 607539 600140 581427 551136 513019 473412 
3976.872 439679 418087 411885 420707 441171 468337 497328 524629 548051 
3981.212 566331 578408 583252 579669 567559 547586 522705 497195 475269 
3985.552 460509 454837 457656 466612 478288 489765 498920 505024 508839 
3989.891 512388 517729 526918 540620 558004 576583 592509 601932 601733 
3994.231 591049 572005 549411 529639 518227 518957 531961 554388 581062 
3998.570 607539 630302 648585 663386 676759 
##END=
