##TITLE=drugomas_1 Sep 21 14:53:56 2026 (GMT+02:00)
##JCAMP-DX=5.01  $$ Nicolet v. 970
##DATATYPE=INFRARED SPECTRUM
##ORIGIN=Vojna akademija
##OWNER=Nicolet
##LONGDATE=2026/09/21
##TIME=14:54:29
##SPECTROMETER/DATA SYSTEM=Nicolet iS20
##DATA PROCESSING=
Ratio against background
%Transmittance->Absorbance
Truncated
ElementMultiply or ElementDivide
##COMMENTS=
Number of sample scans: 8
Collection length: 11,90 sec
Sample gain: 8,0
Background collected on: Mon Sep 21 14:52:59 2026 (GMT+02:00);
Number of background scans: 8
Background gain: 8,0
Sample spacing:  1,000
Number of scan points: 12415
Resolution points: 8286
Number of FFT points: 65536
Apodization: N-B strong;
Phase correction: Mertz;
Laser frequency: 15798,00 cm-1
Number of rejected sample scans: 0
Number of rejected background scans: 0
Bench serial number: BER2010005;
##RESOLUTION= 4,000
##XUNITS=1/CM
##YUNITS=ABSORBANCE
##FIRSTX=400.156891
##LASTX=4000.123047
##FIRSTY=0.025688
##MAXX=4000.123047
##MINX=400.156891
##MAXY=0.253349
##MINY=-0.001836
##XFACTOR=1.000000
##YFACTOR=1.000000E-009
##NPOINTS=7468
##DELTAX=0.482117
##ZPD=6100
##XYDATA=(X++(Y..Y))
400.157 25687706 24840606 24637936 24712182 24752028 24556796 24050416 
403.532 23250546 22239878 21124824 20010368 18963590 18007872 17130938 
406.907 16318686 15595935 15059138 14862968 15200901 16225807 17976030 
410.281 20347748 23118816 26020660 28778218 31173982 33050906 34313788 
413.656 34940536 34968188 34475896 33552610 32288336 30769580 29077448 
417.031 27327732 25662150 24236488 23161836 22434594 21929392 21489564 
420.406 21049240 20640982 20354380 20270148 20437344 20847602 21434978 
423.781 22083632 22664970 23071712 23231846 23115566 22718104 22052536 
427.155 21154288 20096216 18990622 17964910 17141898 16594201 16328078 
430.530 16289856 16396889 16576989 16792154 17044536 17348858 17698360 
433.905 18042342 18288368 18338170 18147320 17767390 17350444 17085650 
437.280 17130246 17527006 18197728 18968574 19648808 20079592 20186660 
440.655 19996732 19618754 19192270 18826372 18570496 18403292 18264248 
444.030 18086866 17831564 17490198 17078274 16627043 16187321 15832881 
447.404 15647423 15720043 16106989 16811992 17781474 18922230 20131682 
450.779 21317926 22430582 23454460 24387972 25210802 25858020 26231582 
454.154 26244358 25865370 25165366 24314798 23573696 23186964 23274002 
457.529 23716588 24173006 24210282 23522974 22087676 20137270 18063446 
460.904 16259791 15065107 14646941 14964676 15780203 16758058 17583174 
464.278 18048214 18109526 17855006 17458980 17102158 16933966 17019484 
467.653 17332788 17779058 18243686 18639180 18923510 19104626 19219074 
471.028 19298218 19333240 19256514 18956322 18339622 17383758 16180340 
474.403 14905486 13786677 13023839 12740069 12959348 13587355 14433830 
477.778 15257145 15861060 16132744 16072467 15762853 15328500 14885564 
481.152 14508579 14228323 14032596 13881977 13722039 13498990 13163369 
484.527 12681011 12047874 11302841 10533758 9854287 9393093 9250470 9468807 
488.384 10014400 10775668 11588225 12266123 12672755 12747883 12529358 
491.759 12132025 11721610 11461550 11457535 11739141 12247071 12860361 
495.134 13415325 13758085 13773988 13415872 12723248 11815980 10863887 
498.509 10025319 9429933 9143391 9164981 9432540 9840662 10267521 10596056 
502.366 10755967 10733143 10569031 10337586 10126409 10014298 10050207 
505.740 10246826 10571408 10953281 11291993 11490502 11486113 11265774 
509.115 10871871 10390795 9935303 9610823 9506432 9672312 10108367 10763542 
512.972 11543955 12334090 13000214 13420930 13505041 13209821 12566192 
516.347 11684779 10743367 9925776 9388386 9209348 9374335 9791621 10328798 
520.204 10860184 11286518 11560628 11681954 11682907 11611605 11522280 
523.579 11466756 11482269 11588974 11780640 12024608 12265372 12445369 
526.954 12525539 12499110 12392180 12249490 12116830 12020656 11963365 
530.328 11926071 11883775 11820202 11740094 11666535 11630255 11649041 
533.703 11715959 11796573 11843867 11816354 11696659 11498225 11257716 
537.078 11016998 10801619 10614594 10438682 10253340 10050478 9847712 
540.453 9684407 9612213 9670618 9872387 10195196 10590387 10993787 11345353 
544.310 11606330 11759498 11811010 11783908 11712555 11632160 11570360 
547.685 11541130 11537728 11532964 11484888 11353788 11117606 10790511 
551.059 10423918 10101448 9908929 9905268 10104398 10464375 10897828 
554.434 11293829 11562091 11653228 11575260 11382835 11160168 10992020 
557.809 10936392 11020227 11233709 11543103 11897431 12244889 12537066 
561.184 12732187 12804938 12748600 12582052 12345850 12101123 11914798 
564.559 11841517 11917182 12147767 12512750 12972628 13485626 14015314 
567.934 14535233 15029363 15483846 15881715 16204895 16435981 16569417 
571.308 16618541 16618850 16618747 16667601 16801038 17024274 17311514 
574.683 17609156 17860046 18019824 18080094 18072426 18061788 18119684 
578.058 18297698 18615870 19056468 19575042 20114816 20629272 21090630 
581.433 21491584 21836318 22124738 22342146 22461740 22451970 22296206 
584.808 22004432 21618466 21198158 20804496 20484788 20259282 20126026 
588.182 20068140 20066510 20104648 20171356 20256922 20348026 20427202 
591.557 20477286 20486942 20457558 20401816 20338304 20279592 20227344 
594.932 20170488 20093058 19981674 19834424 19662432 19483856 19313910 
598.307 19155942 18998758 18822602 18609264 18353896 18070700 17792174 
601.682 17558436 17402348 17341858 17373204 17472226 17599390 17712924 
605.057 17778160 17775328 17705332 17587694 17456430 17345686 17282412 
608.431 17273654 17302894 17333376 17320616 17230868 17051980 16802106 
611.806 16523808 16271798 16088523 15993908 15979091 16015669 16065728 
615.181 16098427 16098082 16062427 15995385 15897937 15762372 15578111 
618.556 15339896 15059034 14766390 14508304 14333890 14276736 14346355 
621.931 14523858 14770024 15034269 15271011 15451639 15564613 15617161 
625.305 15629938 15632549 15653914 15719974 15845459 16028287 16247924 
628.680 16467469 16644603 16739773 16732404 16626354 16448919 16237020 
632.055 16024161 15828654 15648555 15468807 15275679 15068948 14868625 
635.430 14710552 14631245 14655885 14785794 14998631 15255601 15519283 
638.805 15762577 15975138 16161665 16333032 16495759 16646186 16768837 
642.180 16842716 16849190 16779478 16640780 16457936 16272692 16132468 
645.554 16083365 16157160 16360488 16668977 17030958 17381758 17655808 
648.929 17811092 17840816 17773018 17655946 17539460 17458464 17422386 
652.304 17423110 17446874 17489026 17559886 17679966 17865122 18112670 
655.679 18396308 18673320 18900980 19060830 19168026 19270230 19423492 
659.054 19672556 20026884 20459502 20915638 21339192 21696100 21979754 
662.428 22208738 22407836 22592260 22757210 22880238 22931756 22889250 
665.803 22744778 22517362 22258780 22072162 22085828 22378704 22907620 
669.178 23534798 24132864 24639760 25052428 25392590 25690166 25976056 
672.553 26280402 26629596 27038800 27508928 28023988 28559828 29090452 
675.928 29605688 30115004 30649594 31245330 31926752 32688438 33492014 
679.302 34271152 34956048 35500520 35897696 36181236 36408428 36639128 
682.677 36911248 37236500 37605640 38002864 38415332 38838044 39268244 
686.052 39695308 40097104 40446644 40723384 40931444 41104680 41300788 
689.427 41574792 41958476 42443764 42986808 43521004 43984872 44346032 
692.802 44607756 44804644 44983212 45188252 45445772 45763012 46132104 
696.177 46538056 46962848 47387500 47793744 48163676 48486868 48766968 
699.551 49026100 49300532 49627396 50033136 50519240 51062900 51622840 
702.926 52160080 52650776 53095216 53513768 53936552 54388172 54880040 
706.301 55413044 55984996 56597788 57261720 57987288 58777268 59618136 
709.676 60483416 61340492 62167496 62964320 63754356 64573056 65449072 
713.051 66392148 67388152 68409912 69432728 70452688 71491304 72589584 
716.425 73787232 75110136 76560840 78122304 79765392 81458328 83168328 
719.800 84847696 86425904 87804768 88862928 89494872 89633208 89272456 
723.175 88466416 87310688 85911136 84353344 82699408 80985024 79230424 
726.550 77454360 75675952 73914056 72182840 70487960 68831192 67215960 
729.925 65651068 64151316 62729544 61387776 60111784 58874056 57644464 
733.300 56400308 55137168 53867452 52611240 51382628 50182476 48998132 
736.674 47814492 46625548 45443900 44297556 43220296 42233844 41336972 
740.049 40504400 39698940 38888776 38061600 37230944 36429868 35694688 
743.424 35046304 34483252 33981400 33506508 33025630 32521426 31993732 
746.799 31454708 30918736 30394688 29882278 29375682 28867728 28355522 
750.174 27841870 27333342 26837428 26359400 25903106 25472412 25072366 
753.548 24708954 24385976 24101936 23847554 23609764 23375462 23139190 
756.923 22907830 22700194 22540884 22449390 22434070 22485608 22580602 
760.298 22686438 22773970 22822542 22824534 22782770 22706304 22605208 
763.673 22487876 22359864 22225230 22085446 21938802 21779912 21599104 
767.048 21383356 21122180 20809814 20449292 20051590 19633694 19213914 
770.423 18807340 18425832 18076642 17763696 17489026 17251864 17048672 
773.797 16872544 16714601 16565010 16416779 16267601 16120329 15981223 
777.172 15856180 15747907 15655117 15572478 15493426 15413461 15329736 
780.547 15241909 15148953 15048949 14938098 14813323 14675455 14530505 
783.922 14388892 14261705 14154273 14063020 13972849 13862716 13711745 
787.297 13507809 13253612 12968975 12687151 12444790 12278563 12213569 
790.671 12258590 12403567 12622472 12876777 13120747 13313910 13425680 
794.046 13443691 13376574 13253647 13116512 13004139 12944704 12944909 
797.421 12990551 13051633 13097730 13109034 13084583 13042209 13009738 
800.796 13012265 13058119 13133622 13205721 13235063 13189088 13058188 
804.171 12860497 12641268 12456110 12356521 12375032 12513228 12743822 
807.546 13018888 13288663 13509689 13657991 13729801 13737667 13700836 
810.920 13637339 13560485 13477321 13393011 13315380 13256516 13232057 
814.295 13255662 13334068 13463786 13632040 13821838 14015725 14202131 
817.670 14376938 14541709 14700749 14858031 15015780 15174925 15336704 
821.045 15503109 15675109 15851026 16023198 16179720 16306233 16393071 
824.420 16439388 16455939 16459726 16469706 16497444 16543496 16598608 
827.794 16649835 16690154 16721349 16755166 16805862 16882672 16983064 
831.169 17092784 17192740 17269378 17322582 17368032 17429834 17531526 
834.544 17683764 17880140 18098956 18314530 18507114 18669134 18805646 
837.919 18927594 19043276 19152064 19246020 19315262 19357940 19384270 
841.294 19415834 19476198 19583084 19738502 19928526 20126894 20307228 
844.669 20448910 20543112 20591262 20600956 20581986 20544224 20500142 
848.043 20466136 20460510 20501288 20597308 20742976 20915498 21083882 
851.418 21215658 21289634 21303240 21270808 21215450 21156410 21101586 
854.793 21045172 20972872 20870928 20735746 20577192 20416124 20275356 
858.168 20173716 20120438 20114608 20148760 20214084 20304034 20415500 
861.543 20547002 20696894 20862132 21037868 21217988 21395400 21562054 
864.917 21707874 21821128 21892488 21916812 21897960 21848724 21788796 
868.292 21735914 21699828 21678336 21659006 21625886 21567626 21484654 
871.667 21389274 21300318 21233402 21195792 21183302 21184798 21188868 
875.042 21190886 21194540 21208282 21238204 21281978 21327078 21355930 
878.417 21352416 21310478 21236986 21149766 21070456 21016202 20996936 
881.792 21013766 21061276 21131294 21213258 21294332 21356556 21380364 
885.166 21346846 21246658 21086560 20892032 20699048 20542416 20442796 
888.541 20397614 20381500 20356812 20292230 20174480 20017826 19856620 
891.916 19736458 19695024 19749946 19895088 20104372 20342958 20575628 
895.291 20777106 20932676 21035676 21084300 21079604 21025036 20927322 
898.666 20797858 20651580 20503268 20366776 20252304 20166322 20113358 
902.040 20096736 20118114 20175590 20263448 20369556 20478016 20573440 
905.415 20644388 20687058 20705338 20706972 20698388 20680804 20648662 
908.790 20593208 20507678 20392474 20258866 20129704 20034796 20002664 
912.165 20057142 20208322 20449604 20756600 21091536 21408836 21660818 
915.540 21811686 21841648 21753368 21570482 21333482 21088160 20872840 
918.914 20713540 20618084 20579414 20579136 20595744 20608842 20600956 
922.289 20561176 20484024 20371986 20235850 20096528 19981744 19918154 
925.664 19926376 20011790 20161810 20346742 20530328 20676808 20760876 
929.039 20774674 20725670 20632226 20516188 20398830 20296708 20221512 
932.414 20181940 20183018 20227240 20312194 20431752 20575524 20731612 
935.789 20889702 21043084 21189738 21331116 21471566 21615716 21768312 
939.163 21934306 22119020 22326064 22555718 22802080 23051830 23285608 
942.538 23484570 23635724 23738844 23808562 23873250 23966236 24116962 
945.913 24344796 24653052 25028910 25445886 25871664 26271638 26615152 
949.288 26881524 27060346 27155430 27182484 27167916 27141180 27127282 
952.663 27143296 27193630 27272688 27369336 27472428 27573568 27666890 
956.037 27748014 27810994 27850560 27865788 27866458 27874762 27922708 
959.412 28044452 28260210 28566978 28933526 29310702 29641304 29880324 
962.787 30009506 30038088 29995376 29915112 29824248 29734044 29643290 
966.162 29548298 29451592 29366428 29313500 29309320 29357636 29442904 
969.537 29535532 29598808 29604518 29541312 29416880 29252358 29073728 
972.912 28904946 28762888 28659028 28602720 28601126 28659204 28774642 
976.286 28934022 29110858 29271570 29385076 29430246 29404896 29323392 
979.661 29211354 29092788 28984848 28891772 28809198 28729292 28649118 
983.036 28574162 28517968 28496918 28523420 28601728 28725610 28880758 
986.411 29048116 29210820 29355756 29475420 29568444 29638146 29690686 
989.786 29733866 29775454 29821622 29874966 29935130 29998892 30061488 
993.160 30118484 30166642 30204612 30231822 30248590 30255908 30255944 
996.535 30253564 30256440 30274700 30319074 30398848 30519296 30681134 
999.910 30879744 31106846 31350274 31594976 31825200 32023550 32175134 
1003.285 32270882 32309498 32299720 32258674 32208894 32170568 32159116 
1006.660 32182522 32242294 32336164 32460794 32611746 32781690 32958348 
1010.035 33125852 33266164 33368230 33433392 33479702 33536072 33634876 
1013.409 33798308 34027984 34304104 34591488 34855256 35070872 35233768 
1016.784 35357112 35463484 35570712 35685912 35804096 35915724 36014208 
1020.159 36102772 36192148 36295160 36416788 36550344 36679940 36790892 
1023.534 36878208 36953928 37041820 37168568 37349872 37583164 37845868 
1026.909 38107100 38340656 38533932 38691576 38827824 38956472 39080552 
1030.284 39190340 39268132 39299472 39278760 39212028 39109376 38976948 
1033.660 38809784 38593536 38311816 37960228 37554300 37132832 36745740 
1037.035 36441180 36251936 36184116 36219268 36320016 36446300 36561048 
1040.410 36638552 36666744 36643384 36574780 36474624 36363388 36264720 
1043.785 36200756 36187288 36227264 36311008 36419672 36535276 36648248 
1047.161 36763808 36900104 37082852 37333080 37658648 38051040 38488092 
1050.536 38941756 39385372 39803148 40189012 40546192 40881788 41204340 
1053.911 41522104 41842768 42174468 42524516 42897632 43294312 43710040 
1057.286 44135116 44556460 44960132 45330860 45652912 45911372 46093268 
1060.661 46192500 46215608 46183952 46130300 46091832 46100008 46170024 
1064.037 46299460 46471784 46666536 46867720 47070144 47277316 47496528 
1067.412 47730496 47976096 48227948 48485572 48761592 49082412 49478584 
1070.787 49973576 50569304 51242084 51944928 52626612 53250972 53809956 
1074.162 54328352 54852408 55436724 56120936 56924112 57841412 58853032 
1077.538 59931492 61050152 62186880 63321188 64435252 65516964 66562904 
1080.913 67584776 68607192 69660888 70767520 71930560 73129024 74328832 
1084.288 75492736 76598824 77649088 78665528 79676304 80699528 81734816 
1087.663 82765352 83769056 84732344 85658584 86563960 87464576 88361992 
1091.039 89236560 90052600 90776144 91388560 91897336 92328960 92716256 
1094.414 93077256 93407824 93683920 93876768 93966856 93952376 93845104 
1097.789 93660488 93403264 93063992 92624384 92071168 91407080 90655944 
1101.164 89853360 89037744 88239328 87475680 86758816 86101664 85520584 
1104.540 85034688 84655192 84377808 84181160 84036992 83924912 83847056 
1107.915 83830936 83921976 84163664 84575232 85141904 85819888 86557608 
1111.290 87313848 88077728 88867512 89716792 90649040 91660144 92711864 
1114.665 93745960 94700592 95529152 96212192 96749056 97145248 97399216 
1118.041 97499160 97429280 97180968 96760144 96183952 95473048 94639200 
1121.416 93682064 92596784 91389056 90086312 88744744 87436048 86224616 
1124.791 85156216 84245240 83482800 82855888 82365912 82039520 81926952 
1128.166 82079984 82536664 83303816 84356960 85651200 87144208 88814584 
1131.542 90667952 92729424 95025752 97568472 100342600 103308672 106412088 
1134.917 109602664 112837048 116079632 119297024 122445128 125471816 
1137.810 128327488 130973888 133398560 135613120 137644544 139518048 
1140.703 141248800 142840512 144293104 145612864 146816688 147924848 
1143.596 148952832 149899520 150749408 151482864 152094336 152605136 
1146.489 153064960 153532896 154061648 154677936 155377264 156135440 
1149.382 156925568 157735808 158571344 159445840 160364528 161312096 
1152.275 162253168 163145392 163958096 164687952 165357296 166000320 
1155.168 166639008 167271472 167871216 168404352 168848528 169207600 
1158.061 169507424 169777888 170027632 170231760 170333856 170275312 
1160.954 170017280 169563680 168956240 168257248 167516576 166751216 
1163.848 165943600 165057488 164062560 162950928 161740608 160461936 
1166.741 159139200 157776416 156359888 154871472 153305712 151678272 
1169.634 150020864 148363200 146717968 145071760 143393104 141649360 
1172.527 139829840 137954176 136069264 134227248 132470088 130814088 
1175.420 129248920 127748608 126286504 124845440 123417232 121998112 
1178.313 120581184 119154408 117706400 116234584 114752848 113287544 
1181.206 111868672 110514752 109223496 107972216 106730688 105476384 
1184.099 104205936 102936216 101694400 100503192 99365632 98263448 97164848 
1187.474 96042640 94886016 93709368 92544544 91431168 90398080 89456480 
1190.849 88598328 87803352 87046464 86303144 85553904 84779864 83963904 
1194.225 83093696 82166256 81194368 80206320 79242504 78340624 77524424 
1197.600 76796936 76140968 75527472 74927008 74323016 73712792 73105840 
1200.975 72515256 71952176 71421776 70924984 70463296 70040544 69663536 
1204.350 69337720 69062640 68830064 68625424 68434472 68247352 68062568 
1207.726 67884168 67717232 67562016 67412496 67258584 67093128 66917332 
1211.101 66742300 66583684 66454852 66358872 66287300 66222892 66149532 
1214.476 66060640 65963284 65873580 65810500 65786480 65802744 65851720 
1217.851 65923752 66015160 66131980 66287688 66494392 66756672 67064820 
1221.227 67398840 67734232 68052952 68349448 68630712 68910200 69200568 
1224.602 69507024 69825296 70144896 70455264 70750208 71028928 71294704 
1227.977 71551272 71801032 72045608 72286888 72528880 72775328 73027632 
1231.352 73280984 73524760 73744080 73927296 74072272 74186952 74286288 
1234.728 74383336 74481528 74571184 74633072 74646688 74602224 74504512 
1238.103 74371528 74223152 74071992 73914216 73732024 73499752 73196896 
1241.478 72816112 72364384 71857008 71309504 70731176 70122624 69481248 
1244.853 68806816 68105464 67388928 66668352 65948860 65227628 64496480 
1248.229 63749252 62988796 62228672 61490412 60796588 60159848 59583248 
1251.604 59059948 58581072 58142344 57747052 57402940 57116236 56883884 
1254.979 56692196 56518524 56341756 56148952 55940220 55725480 55516876 
1258.354 55319208 55126520 54922752 54691308 54424188 54126308 53813220 
1261.730 53503088 53208500 52932148 52669252 52414444 52167624 51936036 
1265.105 51729728 51553552 51401836 51258228 51102072 50916608 50697452 
1268.480 50453660 50203416 49962800 49739664 49530720 49325512 49115840 
1271.855 48903040 48700724 48530516 48410816 48348776 48335960 48351776 
1275.231 48372220 48377928 48361816 48326300 48277600 48216988 48136132 
1278.606 48018172 47844828 47602960 47290952 46918256 46500624 46051712 
1281.981 45579560 45085976 44570300 44035144 43489580 42948248 42428128 
1285.356 41942928 41499100 41095172 40724368 40378604 40050884 39738768 
1288.732 39443568 39170508 38927224 38724684 38575720 38491788 38480748 
1292.107 38540380 38657168 38804456 38949840 39062280 39119052 39113000 
1295.482 39051876 38954624 38841776 38731820 38635688 38557540 38497836 
1298.857 38454860 38426444 38407404 38388148 38354740 38290900 38184808 
1302.233 38033280 37845292 37637980 37432640 37246032 37084940 36946060 
1305.608 36819672 36696416 36571936 36450084 36339972 36251360 36188944 
1308.983 36150588 36128124 36111484 36092112 36066084 36033576 35997936 
1312.358 35962228 35929040 35900860 35880492 35872104 35880060 35906188 
1315.734 35947576 35994800 36033968 36048372 36023672 35952256 35834212 
1319.109 35676776 35491312 35290044 35083556 34879388 34682564 34494332 
1322.484 34312996 34133132 33947220 33746952 33526838 33286196 33030242 
1325.859 32767146 32506142 32253820 32012242 31779994 31554784 31336882 
1329.234 31131086 30946274 30792306 30677222 30604402 30572726 30577916 
1332.610 30615816 30684404 30783378 30913006 31071112 31252272 31449042 
1335.985 31653814 31864456 32084872 32325562 32597710 32906342 33244916 
1339.360 33595244 33932888 34237916 34503304 34735864 34950160 35159460 
1342.735 35370520 35581104 35783692 35969680 36136116 36287016 36432352 
1346.111 36582172 36741560 36907388 37070288 37217512 37339256 37431776 
1349.486 37497008 37540352 37565900 37576480 37573120 37558632 37540176 
1352.861 37529012 37538512 37579988 37657416 37765840 37892796 38022900 
1356.236 38141504 38239332 38312396 38360604 38385540 38390100 38378628 
1359.612 38358212 38339320 38335884 38360780 38423512 38525496 38659088 
1362.987 38809312 38961220 39104664 39235168 39351488 39452276 39534144 
1366.362 39593124 39627096 39640092 39643832 39655700 39692440 39763312 
1369.737 39867284 39995296 40136604 40285888 40449260 40646492 40909600 
1373.113 41272660 41762432 42382536 43107248 43884456 44649688 45340828 
1376.488 45894392 46251100 46353392 46151040 45621332 44779152 43680692 
1379.863 42403176 41030564 39631416 38252108 36927700 35685156 34545632 
1383.238 33523188 32615818 31803988 31051714 30318364 29566778 28778146 
1386.614 27960764 27146892 26377778 25683698 25072648 24535058 24054830 
1389.989 23618930 23221324 22861342 22539418 22253654 22000214 21776044 
1393.364 21583330 21432542 21339084 21316360 21364666 21469756 21608822 
1396.739 21758244 21902246 22032736 22149004 22253586 22350970 22444050 
1400.115 22534044 22620042 22698868 22764436 22805712 22806582 22748654 
1403.490 22614946 22399672 22115184 21793360 21474558 21196974 20984556 
1406.865 20844926 20777314 20780514 20859004 21025800 21297152 21685686 
1410.240 22192138 22802602 23490098 24222894 24976054 25732774 26484016 
1413.616 27223122 27937442 28607850 29211282 29723116 30124876 30404250 
1416.991 30552640 30561314 30423190 30141356 29741532 29276956 28809976 
1420.366 28385764 28022610 27715238 27446662 27200296 26968318 26757638 
1423.741 26591338 26499126 26504690 26613778 26814448 27087290 27416484 
1427.117 27797924 28238642 28754036 29358842 30058720 30843778 31690414 
1430.492 32567494 33446454 34304500 35126696 35905648 36639092 37330300 
1433.867 37991004 38640292 39306252 40021056 40809240 41664536 42541544 
1437.242 43373352 44108124 44730040 45254184 45708600 46121824 46516152 
1440.618 46904116 47288880 47666520 48029976 48374520 48700724 49016012 
1443.993 49331748 49658900 50006664 50382432 50793424 51250472 51768400 
1447.368 52363600 53050440 53833808 54712352 55684536 56753480 57927124 
1450.743 59212008 60604160 62076740 63582784 65070832 66494392 67834776 
1454.119 69101064 70320208 71523024 72721536 73884672 74925752 75740984 
1457.494 76287400 76610408 76807768 76953072 77078096 77190880 77291864 
1460.869 77384072 77474560 77570968 77677104 77788456 77890056 77951856 
1464.244 77925448 77746296 77327768 76575384 75404280 73742192 71561304 
1467.620 68884032 65789528 62380088 58768624 55038352 51197236 47200440 
1470.995 42976932 38513872 33957288 29637544 25931314 23042536 20926556 
1474.370 19376234 18153676 17092920 16107950 15182338 14336835 13595629 
1477.745 12965220 12432856 11976784 11577166 11222182 10906119 10624645 
1481.120 10369721 10127834 9886217 9637010 9381277 9126539 8882638 8655638 
1484.978 8445886 8248898 8059223 7875602 7704775 7558963 7450176 7382261 
1488.835 7345763 7317187 7271328 7194750 7090297 6972267 6853696 6740442 
1492.693 6630042 6516577 6395945 6268892 6143826 6036367 5962559 5932058 
1496.550 5939751 5967598 5993465 6002770 5992289 5965549 5926113 5873918 
1500.408 5805712 5718816 5615121 5501954 5390292 5292075 5216180 5165647 
1504.265 5137348 5121489 5105296 5076263 5031612 4983983 4952680 4941720 
1508.122 4938872 4928449 4903618 4864881 4817203 4765879 4714761 4663951 
1511.980 4611439 4554547 4492608 4428200 4367349 4316914 4284454 4276323 
1515.837 4296467 4344289 4414877 4499872 4589372 4674836 4747387 4795762 
1519.695 4807253 4768860 4676477 4543833 4404200 4291414 4218103 4172570 
1523.552 4131457 4073423 3982794 3854740 3695511 3522578 3357528 3221714 
1527.410 3128825 3083806 3085909 3130260 3210398 3317360 3441381 3573823 
1531.267 3706272 3832042 3943905 4033023 4089277 4105533 4084294 4036567 
1535.124 3977744 3922105 3880983 3864669 3882120 3939793 4038407 4167786 
1538.982 4300784 4396501 4421739 4375382 4289909 4199936 4125904 4070413 
1542.839 4028240 3992859 3959487 3923777 3881618 3829869 3768200 3699923 
1546.697 3631823 3573088 3532366 3514762 3518670 3532633 3538613 3518069 
1550.554 3464693 3386880 3303605 3235533 3198281 3196312 3221914 3255329 
1554.411 3273791 3263675 3226487 3177353 3137769 3132630 3183795 3304005 
1558.269 3476083 3639474 3721678 3713423 3659990 3603390 3559926 3529393 
1562.126 3506979 3487673 3467399 3442784 3410890 3368981 3314989 3248920 
1565.984 3173682 3094485 3017872 2951380 2901977 2875360 2873992 2895306 
1569.841 2932132 2976268 3021842 3066187 3106699 3140573 3163802 3172580 
1573.699 3165905 3147548 3127690 3120749 3140673 3188935 3250689 3302870 
1577.556 3330983 3334522 3322602 3306676 3296727 3297328 3306876 3318562 
1581.413 3322869 3312218 3284441 3243913 3200017 3165170 3149350 3158428 
1585.271 3191305 3240774 3294590 3339330 3364139 3362036 3332485 3281269 
1589.128 3218876 3156092 3100759 3056010 3020041 2988645 2958586 2929997 
1592.986 2907514 2897807 2905947 2932999 2973899 3019740 3060715 3090914 
1596.843 3110136 3123018 3135900 3152955 3173615 3193608 3206159 3206559 
1600.701 3194643 3176051 3159997 3155491 3168675 3200551 3246950 3300566 
1604.558 3354088 3401439 3438208 3461287 3468802 3460752 3440246 3414330 
1608.415 3392423 3383807 3394059 3422946 3464660 3510186 3552042 3586084 
1612.273 3612745 3634897 3654978 3672053 3679973 3668077 3625274 3547432 
1616.130 3445556 3346208 3279533 3261305 3285275 3332652 3384008 3426954 
1619.988 3456110 3472108 3479356 3483832 3490245 3501401 3517835 3538546 
1623.845 3562732 3590193 3620730 3652773 3683013 3708210 3724886 3733241 
1627.703 3736416 3740527 3750286 3767531 3789323 3811384 3829869 3844411 
1631.560 3858049 3877673 3910905 3965439 4046199 4154037 4282647 4415547 
1635.417 4529435 4604675 4638331 4642852 4637259 4636020 4647675 4676611 
1639.275 4724174 4788659 4865417 4947887 5030070 5108615 5185832 5269704 
1643.132 5372042 5505913 5682457 5907639 6179517 6481631 6782071 7038468 
1646.990 7215400 7304214 7323253 7300979 7258626 7208090 7155607 7105891 
1650.847 7066992 7054161 7090870 7203138 7392102 7603032 7754289 7815144 
1654.704 7807992 7765117 7704606 7632335 7547163 7446469 7330228 7202666 
1658.562 7070831 6943109 6825085 6717256 6615206 6511734 6401023 6284020 
1662.419 6171081 6079542 6025817 6015873 6044901 6100544 6168695 6235480 
1666.277 6289197 6319117 6316159 6274909 6197700 6098863 6003140 5937735 
1670.134 5918354 5942135 5992188 6049437 6100544 6141911 6177265 6216320 
1673.992 6269733 6343761 6433372 6522228 6592363 6634181 6651777 6657059 
1677.849 6665034 6687981 6733509 6803107 6891702 6989338 7084976 7170967 
1681.706 7242858 7298216 7334912 7351728 7353952 7358468 7389811 7460154 
1685.564 7564493 7689564 7822263 7952166 8071847 8178697 8275138 8369539 
1689.421 8473320 8596626 8743835 8911249 9090369 9272099 9451435 9628507 
1693.279 9810362 10008669 10238922 10513085 10831954 11175909 11510610 
1696.654 11807605 12058537 12271167 12460201 12639733 12825004 13032648 
1700.029 13274656 13550811 13844655 14135104 14409442 14664043 14901337 
1703.404 15125005 15340514 15553383 15765704 15974142 16170057 16343594 
1706.780 16490217 16614031 16726205 16840270 16968488 17117666 17287342 
1710.155 17471570 17661572 17852312 18043690 18241956 18457878 18702514 
1713.530 18984600 19309684 19681222 20106696 20603076 21199272 21926014 
1716.905 22800578 23797608 24845414 25859602 26789602 27640196 28456548 
1720.281 29293120 30201310 31221190 32381892 33699684 35180948 36823244 
1723.656 38619140 40559508 42634668 44834108 47149172 49578852 52142484 
1727.031 54892408 57915044 61316264 65183544 69535144 74282360 79246008 
1730.406 84209160 89049784 93827952 98853032 104669664 112002144 121455120 
1733.782 132927168 145258384 156774944 166442000 174298048 180973360 
1736.675 187140528 193302928 199761664 206639744 213877840 221272640 
1739.568 228496912 235191504 241055024 245868912 249498896 251898976 
1742.461 253125760 253349312 252802704 251703616 250138464 248036240 
1745.354 245213936 241494208 236797600 231204592 224906912 218142912 
1748.247 211060144 203652016 195774848 187285248 178189552 168717504 
1751.140 159294000 150363488 142215280 134903840 128299920 122183232 
1754.033 116321200 110516672 104621224 98549176 92316416 86051648 79972952 
1757.408 74310000 69208416 64694212 60691140 57063372 53656552 50331572 
1760.784 47005712 43679736 40452644 37474648 34872096 32687404 30875830 
1764.159 29336614 27960764 26657568 25371724 24087330 22826664 21635392 
1767.534 20559264 19624680 18824572 18126904 17489714 16880330 16280500 
1770.909 15685517 15100646 14535576 14001318 13509928 13068705 12681114 
1774.285 12345442 12053018 11789287 11536061 11276826 11003065 10718031 
1777.660 10435321 10170129 9933912 9728014 9543451 9365262 9183255 8998313 
1781.517 8821904 8668720 8547657 8456968 8384740 8314281 8231271 8131295 
1785.375 8019529 7905598 7793891 7681032 7556367 7409999 7239860 7055912 
1789.232 6879482 6737918 6652954 6631422 6656958 6695148 6705445 6664596 
1793.089 6577124 6465219 6350519 6242068 6136802 6024809 5898369 5758132 
1796.947 5613677 5480444 5372478 5296167 5248475 5219869 5200654 5186201 
1800.804 5178187 5180937 5195054 5213564 5224362 5214704 5179394 5122361 
1804.662 5055680 4992999 4943597 4908208 4878921 4844543 4796733 4735429 
1808.519 4668405 4606717 4557226 4517751 4477208 4421271 4342014 4243899 
1812.377 4143132 4059176 4005433 3984532 3987174 3997441 3998310 3980286 
1816.234 3942902 3894088 3843207 3796075 3751121 3702295 3642883 3572019 
1820.091 3495155 3422044 3360667 3312753 3271754 3226254 3164503 3081804 
1823.949 2984708 2891203 2825165 2804354 2835403 2911751 3021142 3149317 
1827.806 3285175 3418137 3534403 3616621 3646825 3615184 3527489 3403209 
1831.664 3267648 3142241 3042930 2977202 2945976 2944108 2962856 2991114 
1835.521 3016837 3030017 3021375 2984375 2916220 2819195 2701453 2574276 
1839.379 2451169 2342188 2252984 2184578 2133830 2096572 2068805 2049862 
1843.236 2042239 2051527 2082356 2136527 2210321 2297217 2389195 2478627 
1847.093 2557844 2618542 2652911 2655745 2626509 2571376 2501854 2431110 
1850.951 2369339 2322200 2289090 2265374 2243358 2217414 2183912 2143553 
1854.808 2099702 2057453 2022432 1999630 1991874 1998764 2014909 2028990 
1858.666 2026327 1992673 1918717 1806841 1673241 1547529 1461480 1442597 
1862.523 1503039 1636754 1820450 2021300 2207656 2354214 2450769 2500321 
1866.380 2515618 2511419 2500221 2489157 2479626 2470529 2460232 2447170 
1870.238 2429277 2401689 2357978 2291621 2198831 2081856 1949036 1812897 
1874.095 1687710 1585970 1514810 1475377 1463508 1471188 1487679 1502574 
1877.953 1506830 1494561 1465536 1426075 1388678 1368236 1378141 1424313 
1881.810 1503139 1601002 1699452 1782054 1838185 1867567 1879747 1888366 
1885.668 1904573 1934226 1975897 2024163 2072434 2115384 2150313 2175420 
1889.525 2186809 2178817 2145018 2081790 1991608 1883307 1769445 1663628 
1893.382 1577424 1518002 1487512 1484021 1503871 1542341 1594716 1655679 
1897.240 1717914 1773637 1816157 1843242 1858349 1870096 1887900 1915522 
1901.097 1946740 1965845 1954229 1896652 1792534 1657541 1521792 1418030 
1904.955 1370097 1385620 1452737 1544004 1625113 1669449 1662530 1607320 
1908.812 1519165 1421654 1336727 1279132 1254409 1259559 1286011 1322203 
1912.670 1358464 1387714 1407825 1423249 1445090 1488211 1566682 1688076 
1916.527 1846803 2022765 2181314 2287824 2321501 2286891 2208356 2121577 
1920.384 2057852 2033750 2050229 2090712 2130068 2141988 2113386 2048498 
1924.242 1966277 1889364 1833992 1803647 1788176 1766151 1714354 1617497 
1928.099 1474147 1299770 1121410 971415 874890 839599 855700 899592 944650 
1932.439 970652 974172 967331 974039 1016116 1105730 1236432 1386684 1524419 
1936.778 1620291 1656976 1634559 1569775 1488876 1418429 1377443 1377111 
1940.636 1420756 1506996 1632596 1791603 1975065 2168760 2352981 2506053 
1944.493 2607142 2643577 2613275 2529015 2414150 2301714 2226839 2216515 
1948.351 2286625 2435941 2644977 2878161 3093851 3250122 3313053 3265946 
1952.208 3109936 2864853 2559044 2224208 1884239 1553148 1237196 940334 
1956.066 668795 433277 245725 114128 37111 5699 3280 14579 32008 57822 
1960.887 102064 174717 278315 404357 535146 649614 736265 798734 858954 
1965.227 948668 1100914 1332439 1635556 1971969 2284593 2515618 2624576 
1969.084 2601442 2465897 2260211 2032452 1827304 1670979 1563324 1475643 
1972.942 1361389 1175428 888004 503597 60440 -371042 -717388 -922696 -967793 
1977.281 -869295 -671538 -424074 -165075 81583 306564 503896 665742 780875 
1981.621 841889 853907 838702 834818 883190 1008544 1207557 1448282 1684151 
1985.961 1868665 1977860 2021500 2039609 2082522 2186010 2357412 2569143 
1989.818 2769273 2900643 2923492 2827866 2633276 2374503 2086784 1789008 
1993.675 1485817 1177455 867752 572137 313726 112935 -20343 -92235 -121319 
1998.015 -129501 -131489 -126089 -100119 -35551 76745 232596 412416 590485 
2002.355 745326 869511 972013 1070686 1179615 1300501 1419992 1515308 
2006.212 1565851 1569110 1543306 1525483 1555243 1660834 1846936 2094208 
2010.069 2358012 2586275 2734728 2777243 2715923 2581142 2431443 2336458 
2013.927 2361809 2548445 2895139 3354890 3838393 4245940 4486950 4516646 
2017.784 4351016 4058942 3730902 3440947 3230293 3095186 3000022 2896907 
2021.642 2749433 2543179 2286958 1997200 1693132 1384922 1080485 793489 
2025.499 549710 381507 319794 372984 519753 704835 862407 933659 896537 
2029.839 773174 624661 520549 506284 587631 726607 861809 937013 932464 
2034.178 877081 833125 865959 1017511 1283652 1617032 1941015 2181015 
2038.036 2291021 2257680 2099935 1855987 1573067 1291495 1044912 857958 
2041.893 744862 712502 754753 849724 958631 1031593 1024253 907096 680775 
2046.233 376897 54011 -219093 -379517 -383555 -221014 87615 496764 951790 
2050.572 1393631 1771940 2051727 2214916 2266107 2230203 2149147 2066508 
2054.430 2019336 2024662 2073333 2135728 2171990 2152577 2064877 1922045 
2058.287 1753742 1598009 1483057 1417532 1388180 1370097 1337192 1276972 
2062.145 1195396 1116327 1069291 1074041 1132007 1222044 1307746 1347994 
2066.002 1315390 1204965 1035878 843915 671848 557141 519255 561620 670487 
2070.342 823033 993433 1160079 1309973 1439638 1551718 1652386 1746257 
2074.199 1833227 1906902 1955094 1964247 1921279 1820084 1664360 1470390 
2078.056 1263680 1075436 935884 864697 866391 928446 1025415 1123868 1192639 
2082.396 1213338 1182605 1114932 1035545 972843 948303 970519 1033021 
2086.253 1119483 1209185 1285314 1340682 1377377 1402407 1422884 1439638 
2090.111 1446819 1434618 1393797 1321505 1223406 1112407 1002898 906199 
2093.968 826253 758769 696439 633155 569881 515175 481970 482567 522573 
2098.308 599244 703109 820577 940134 1052949 1152704 1234172 1291329 1318248 
2102.647 1311701 1275510 1221047 1165362 1127256 1118121 1137090 1170079 
2106.505 1196526 1196692 1162006 1099751 1032324 988651 992835 1056968 
2110.362 1175893 1329814 1489607 1629071 1726696 1771075 1759996 1699685 
2114.220 1600902 1477771 1348426 1231148 1142040 1091879 1080917 1099286 
2118.077 1128419 1149780 1150146 1128087 1094802 1070653 1077761 1130944 
2121.935 1233375 1374518 1533197 1680725 1788875 1833693 1798457 1677764 
2125.792 1478935 1223439 942924 677157 464821 331168 282526 302420 357265 
2130.132 406247 417623 376764 289787 175811 57855 -49532 -145036 -236678 
2134.471 -327836 -408019 -444530 -391798 -207336 127617 593803 1131077 
2138.329 1649592 2062347 2300981 2342854 2214683 1984984 1738472 1547628 
2142.186 1459718 1483656 1594317 1743928 1883074 1970671 1983719 1918317 
2146.043 1785681 1604893 1396091 1180512 977028 804709 683197 631264 661660 
2150.383 775332 954679 1161275 1341081 1441400 1419460 1258396 969157 587764 
2154.723 159934 -275322 -692049 -1078564 -1424149 -1696194 -1835683 -1759526 
2158.580 -1396307 -729230 172728 1164033 2067807 2713422 2998187 2904712 
2162.438 2502720 1919415 1302993 783464 431918 264390 244564 310842 391323 
2166.777 429729 394673 279078 97193 -119994 -330949 -495899 -583661 -581775 
2171.117 -502948 -383423 -274097 -222338 -261415 -396433 -605268 -843931 
2174.974 -1066004 -1233582 -1323971 -1332625 -1263218 -1123181 -919621 
2178.349 -661249 -363493 -48207 255737 523004 742007 921971 1091580 1286942 
2182.689 1533796 1828768 2134030 2383764 2509752 2462032 2234000 1867401 
2186.546 1445423 1063213 799962 700355 761026 935585 1150279 1333071 1428203 
2190.886 1411980 1293921 1109384 906365 729030 612019 570578 603690 697633 
2195.226 834387 996522 1167953 1335165 1483323 1593186 1643938 1613074 
2199.083 1485518 1260091 956007 612583 281830 21140 -128276 -147255 -45391 
2203.423 143991 370066 581294 738389 821905 834420 796012 735535 679945 
2207.762 646428 639792 654127 676295 692158 693751 676859 643575 597353 
2212.102 540620 473909 395767 306730 212673 125861 65179 49107 92122 196628 
2216.924 352026 535245 718144 875720 990577 1057267 1082412 1078691 1059858 
2221.263 1037405 1018640 1007381 1006219 1018408 1046041 1088457 1141209 
2225.121 1193735 1232843 1247065 1231879 1192904 1143634 1103206 1087029 
2228.978 1101611 1141608 1191243 1232311 1249790 1239156 1207922 1173003 
2232.835 1152903 1159514 1195197 1249956 1305187 1339918 1338621 1293156 
2236.693 1206162 1085534 942924 788576 630501 475402 330140 203987 109886 
2241.032 60738 66670 130932 247780 401206 569715 733477 877081 994263 
2245.372 1086962 1162372 1226796 1283353 1328651 1354409 1351019 1310538 
2249.229 1231813 1120845 990710 858124 741908 657943 617261 624628 676494 
2253.569 761258 860547 953649 1020699 1049096 1037638 996190 943123 898364 
2257.909 877778 885415 913504 944119 957601 938607 883024 800394 711606 
2262.248 643110 617029 647623 735966 869777 1025648 1176425 1295815 1363782 
2266.588 1372424 1326590 1243310 1145694 1058197 998946 973508 974039 981577 
2270.927 973939 931700 848031 730789 601733 488272 417656 408337 465119 
2275.267 580465 737925 918020 1101611 1274214 1427006 1554744 1654947 
2279.125 1727095 1769811 1782719 1765552 1718812 1644603 1547229 1433355 
2282.982 1312332 1196426 1098323 1028172 993001 992603 1021065 1067697 
2286.839 1120679 1169249 1206394 1228590 1235534 1228424 1209650 1182173 
2290.697 1150644 1121244 1101844 1099950 1120114 1162206 1221346 1289268 
2294.554 1357866 1422518 1484154 1547462 1618196 1698354 1782553 1858949 
2298.412 1909698 1919449 1879380 1791869 1669682 1534361 1408124 1307613 
2302.269 1241283 1207889 1199849 1206959 1221147 1238824 1259659 1285347 
2306.126 1315589 1347030 1372889 1384856 1376878 1347761 1302827 1252913 
2309.984 1210381 1186824 1187954 1212740 1253511 1300368 1343108 1375814 
2313.841 1398218 1413675 1427504 1443894 1463575 1484454 1502773 1515874 
2317.699 1524086 1531734 1544968 1568811 1604992 1649692 1694629 1729590 
2321.556 1746057 1740601 1714986 1675602 1630069 1585704 1546431 1514477 
2325.414 1490039 1473349 1464771 1463807 1469293 1477272 1482625 1479300 
2329.271 1462943 1431959 1388578 1336960 1281990 1228091 1178352 1135728 
2333.128 1104468 1090782 1101611 1142139 1211577 1301232 1393997 1469127 
2336.986 1507195 1496855 1439672 1350287 1253877 1175462 1137256 1149481 
2340.843 1209850 1303824 1410817 1509955 1584141 1625346 1634027 1618462 
2344.701 1590626 1563124 1545633 1541543 1549823 1565186 1582279 1596179 
2348.558 1604095 1605092 1600237 1591291 1580383 1569409 1559466 1550056 
2352.416 1539615 1524652 1500180 1460716 1399847 1313230 1199516 1062914 
2356.273 914069 767166 638299 541283 482434 461072 469962 499617 541383 
2360.613 591314 650079 722027 810618 918219 1044214 1186326 1341579 1507229 
2364.952 1678729 1848833 2005921 2135029 2219679 2247722 2214850 2125406 
2368.810 1991208 1828069 1652220 1476308 1310903 1165328 1048698 971382 
2372.667 941629 962283 1027607 1122074 1223174 1305187 1349058 1346266 
2376.524 1302495 1234803 1167920 1125928 1125263 1172272 1261586 1379770 
2380.382 1508359 1629636 1729291 1797525 1830798 1829933 1800187 1749218 
2384.239 1687843 1627308 1577989 1547462 1538384 1547196 1564787 1578720 
2388.097 1577124 1551818 1502075 1434452 1361921 1298441 1256469 1242346 
2391.954 1255073 1287042 1328318 1370197 1407459 1440536 1472884 1509091 
2395.812 1551452 1597676 1641277 1673740 1686279 1673041 1632297 1566549 
2399.669 1481295 1383825 1282721 1186226 1103405 1042454 1009540 1007182 
2403.526 1032589 1077662 1130280 1177887 1211544 1228656 1233441 1235202 
2407.384 1244373 1267535 1304788 1348925 1388711 1411781 1409121 1378440 
2411.241 1323698 1253910 1179648 1111477 1057002 1021330 1007348 1016083 
2415.099 1046805 1097293 1163003 1236764 1309640 1372358 1416468 1436414 
2418.956 1430264 1399880 1350487 1289534 1225932 1168119 1123071 1095366 
2422.813 1085966 1091513 1105431 1118885 1123004 1111577 1082412 1039132 
2426.671 989415 943754 913504 907262 929509 979352 1051056 1133967 1215465 
2431.010 1283486 1327587 1342244 1327221 1288005 1233607 1175761 1125828 
2434.868 1092277 1080618 1092277 1125629 1176259 1237927 1303359 1364247 
2438.725 1412479 1441965 1449312 1435383 1405465 1367405 1328518 1293489 
2442.583 1262018 1229620 1189449 1136724 1071351 1000440 936017 891756 
2446.440 878476 899526 949864 1017146 1087328 1147355 1190014 1215199 
2450.298 1227792 1234936 1242679 1254143 1268698 1284017 1296347 1303193 
2454.155 1302528 1292558 1271356 1237129 1189183 1129748 1065339 1005987 
2458.012 963678 949167 967464 1016050 1084338 1157588 1219718 1258596 
2461.870 1270160 1257865 1231979 1204899 1188951 1191875 1215997 1258795 
2465.727 1313861 1372324 1424978 1463076 1479566 1470523 1436081 1381665 
2469.585 1317517 1256469 1212375 1195230 1209085 1250720 1311103 1377842 
2473.442 1439073 1487413 1519963 1538551 1546731 1547163 1539548 1520994 
2477.300 1487579 1437178 1371659 1298042 1226762 1169481 1136126 1130645 
2481.157 1151275 1190446 1237030 1279066 1306383 1313097 1297643 1262749 
2485.014 1214468 1160611 1108620 1065040 1034283 1018474 1017378 1029368 
2488.872 1052019 1081814 1115032 1147920 1176624 1198088 1210714 1215399 
2492.729 1215232 1214800 1219220 1231680 1252182 1277936 1303957 1324961 
2496.587 1337824 1342477 1341380 1337957 1333702 1327454 1315091 1291096 
2500.444 1251451 1196360 1130811 1063512 1004592 963313 945049 951591 982042 
2504.784 1034283 1105099 1190246 1283187 1373687 1448016 1493298 1499349 
2508.641 1464373 1396390 1313196 1236398 1185495 1172604 1197855 1250122 
2512.499 1311103 1363117 1392235 1393465 1370064 1331609 1288869 1250920 
2516.356 1223406 1207989 1204201 1211079 1227859 1254176 1289501 1332439 
2520.213 1379072 1424446 1462810 1488643 1498617 1491934 1471022 1440469 
2524.071 1406395 1375216 1352149 1340084 1339286 1347828 1362054 1378374 
2527.928 1393764 1406429 1415504 1421055 1423316 1422651 1420224 1417897 
2531.786 1418363 1425011 1440270 1464705 1496190 1530038 1560763 1582645 
2535.643 1592621 1589229 1573499 1546564 1509456 1462744 1406728 1343341 
2539.500 1277072 1214236 1162372 1127157 1111544 1114666 1133170 1163435 
2543.358 1203105 1251750 1309707 1375249 1443328 1504669 1548759 1567913 
2547.215 1561262 1536522 1508160 1493763 1505400 1546664 1609382 1678396 
2551.073 1735478 1767415 1770609 1751247 1722903 1699585 1691901 1703111 
2554.930 1729490 1763157 1796527 1824675 1846503 1863807 1878881 1892792 
2558.788 1904273 1910363 1907068 1891560 1862143 1818420 1762092 1696491 
2562.645 1626444 1558968 1502906 1466833 1458222 1481129 1534826 1614304 
2566.502 1711128 1815692 1918251 2011314 2087782 2142288 2170192 2168394 
2570.360 2136627 2078094 2001194 1917685 1840181 1780391 1744793 1734314 
2574.217 1743495 1763656 1784350 1796560 1794930 1778494 1750615 1718479 
2578.075 1691635 1680558 1693032 1733116 1798457 1879613 1961085 2025727 
2581.932 2058485 2050861 2004157 1930032 1846836 1774302 1729989 1723236 
2585.790 1754008 1813595 1887667 1959987 2015441 2044636 2043671 2015508 
2589.647 1968141 1913724 1865704 1834524 1827437 1844873 1881610 1928002 
2593.504 1973301 2009316 2032319 2044137 2050861 2060449 2078893 2108292 
2597.362 2146184 2185877 2218513 2235365 2230669 2201529 2149314 2079259 
2601.219 1999929 1921812 1856686 1815825 1806908 1833626 1894256 1982421 
2605.077 2086817 2194935 2295352 2378034 2436807 2469396 2476494 2462232 
2608.934 2433875 2400390 2371637 2357112 2362742 2390095 2434841 2487857 
2612.792 2537980 2574409 2590042 2582409 2554145 2510219 2456234 2397091 
2616.649 2336025 2276266 2221810 2179150 2156639 2161901 2199597 2268438 
2620.506 2361210 2464431 2562344 2641743 2693718 2716590 2715056 2698852 
2624.364 2678548 2663313 2658879 2667013 2685716 2710922 2737596 2761037 
2628.221 2777510 2785380 2784179 2775675 2763104 2751300 2745098 2749366 
2632.079 2767239 2800086 2845976 2900309 2956451 3006528 3043163 3061182 
2635.936 3058980 3038626 3005994 2969462 2936769 2914019 2903645 2904312 
2639.793 2911751 2920657 2926861 2928463 2926661 2924159 2924326 2929030 
2643.651 2937970 2948912 2958319 2963690 2963924 2960288 2955917 2954283 
2647.508 2957852 2967894 2983607 3003158 3024879 3047835 3071860 3097488 
2651.366 3125154 3153856 3181525 3205324 3222448 3231761 3234365 3233931 
2655.223 3235767 3244914 3264577 3295091 3333554 3374190 3410957 3438977 
2659.081 3456344 3464293 3467365 3471139 3480291 3497560 3522478 3551841 
2662.938 3581139 3605762 3622902 3631923 3634296 3632758 3630821 3630654 
2666.795 3633560 3639642 3647894 3657083 3665972 3673958 3680875 3687391 
2670.653 3694241 3702663 3713590 3727192 3743000 3759577 3775052 3787920 
2674.510 3797312 3803897 3809613 3816766 3827529 3842438 3860858 3880147 
2678.368 3897365 3910571 3918595 3922373 3923744 3924513 3925449 3926252 
2682.225 3925449 3921805 3914884 3905790 3896763 3890444 3888538 3890946 
2686.083 3895526 3899036 3897966 3889508 3872291 3846349 3812588 3772478 
2689.940 3727426 3678903 3628749 3579402 3533702 3494520 3464025 3443185 
2693.797 3431829 3428456 3431162 3438041 3447326 3457346 3465996 3471507 
2697.655 3471975 3466196 3454173 3437941 3420141 3403677 3390386 3380168 
2701.512 3371219 3360934 3347377 3330081 3311083 3293889 3282638 3280167 
2705.370 3287813 3304940 3329347 3359097 3392490 3428456 3466096 3503505 
2709.227 3537811 3565304 3582175 3586518 3578400 3560928 3538278 3515497 
2713.084 3496224 3481995 3472375 3465962 3460585 3455175 3449664 3444754 
2716.942 3441982 3442750 3448562 3460686 3480291 3507981 3543924 3586451 
2720.799 3633126 3680674 3725521 3765225 3798783 3826761 3850762 3872258 
2724.657 3891915 3909133 3922440 3930531 3932471 3929160 3922072 3913613 
2728.514 3905522 3898669 3892718 3886399 3877874 3865271 3847486 3823351 
2732.372 3793268 3758240 3721277 3686288 3658687 3643283 3643083 3657785 
2736.229 3683882 3714426 3741630 3759243 3764423 3758240 3745339 3731904 
2740.086 3723215 3722146 3728562 3739892 3752892 3764724 3773782 3779263 
2743.944 3781001 3778594 3771409 3759109 3742365 3724351 3709046 3701293 
2747.801 3704501 3719739 3744370 3773681 3802025 3824287 3838226 3843909 
2751.659 3843775 3840667 3836822 3833011 3828666 3822381 3813323 3801423 
2755.516 3788221 3776121 3767364 3763955 3766529 3774851 3787819 3803964 
2759.374 3822147 3841803 3863265 3887168 3914483 3945510 3979583 4014295 
2763.231 4046500 4072286 4088542 4093960 4089512 4078407 4064795 4052754 
2767.088 4044862 4041918 4043022 4047203 4054025 4064962 4082755 4110584 
2770.946 4150457 4202010 4261700 4324310 4383448 4433790 4472487 4499638 
2774.803 4518018 4531913 4546277 4565563 4592787 4629724 4675975 4729566 
2778.661 4786984 4843605 4895274 4938604 4972386 4997524 5017132 5034562 
2782.518 5053401 5076029 5103687 5136878 5176142 5222384 5276814 5340241 
2786.375 5411796 5488800 5567226 5642477 5711228 5772805 5829286 5884599 
2790.233 5942774 6006668 6076317 6149438 6222673 6292727 6357714 6417668 
2794.090 6473627 6527475 6580724 6633911 6687779 6743201 6801222 6863021 
2797.948 6929306 6999372 7070932 7141358 7208360 7271867 7333834 7398102 
2801.805 7468952 7548613 7637157 7731825 7829246 7926723 8025165 8127886 
2805.663 8240962 8369877 8517245 8681565 8857071 9035018 9206438 9364957 
2809.520 9507685 9635316 9751870 9862896 9974155 10091037 10218704 10361033 
2813.377 10521435 10702034 10902924 11122060 11355693 11599455 11848600 
2816.753 12100169 12352805 12607327 12865480 13129592 13402306 13685346 
2820.128 13980240 14288448 14611164 14949244 15302792 15670678 16050942 
2823.503 16441211 16839408 17245210 17660572 18089594 18538752 19014786 
2826.878 19523886 20070744 20656828 21281942 21943892 22640150 23368400 
2830.254 24127750 24917694 25738610 26590282 27471862 28381872 29319670 
2833.629 30286494 31287312 32330916 33430350 34601212 35859512 37221412 
2837.004 38701900 40315592 42078928 44010720 46132840 48469496 51043148 
2840.379 53873044 56972424 60347772 63999324 67924032 72117544 76573528 
2843.755 81284336 86237384 91409992 96770624 102274824 107865256 113480832 
2847.130 119051536 124503048 129761368 134745456 139373296 143564016 
2850.023 147236528 150318976 152751216 154485088 155489872 155750880 
2852.916 155271888 154074448 152200768 149711648 146679456 143190144 
2855.809 139331648 135187248 130838680 126355872 121801344 117231456 
2858.702 112692456 108226240 103868904 99648912 95591872 91719232 88047696 
2862.077 84592416 81365368 78375592 75629840 73131960 70883328 68883024 
2865.453 67127888 65611796 64324608 63252652 62376224 61670248 61105640 
2868.828 60646908 60256484 59896192 59525784 59110744 58621460 58037052 
2872.203 57348940 56561024 55689996 54760760 53805308 52855988 51940928 
2875.578 51084252 50302440 49605780 49000504 48488428 48068916 47739040 
2878.954 47495752 47335660 47257884 47264384 47359932 47551348 47843680 
2882.329 48238496 48731564 49312780 49967928 50683268 51447380 52254352 
2885.704 53103792 53999060 54943996 55940668 56988032 58081816 59216904 
2889.079 60387792 61590208 62820436 64075120 65350352 66641428 67944024 
2892.455 69255672 70577328 71912880 73268280 74650776 76065368 77514560 
2895.830 78997456 80510888 82050328 83611080 85189312 86782768 88391032 
2899.205 90016152 91662392 93336872 95047776 96803256 98609552 100470280 
2902.580 102385912 104355608 106378560 108456712 110595064 112801600 
2905.473 115085792 117456208 119920032 122482200 125145584 127913344 
2908.366 130788792 133775920 136878400 140099168 143439056 146896752 
2911.260 150468944 154149952 157931536 161803040 165748624 169748688 
2914.153 173780432 177816096 181826512 185779408 189636768 193356912 
2917.046 196890704 200183824 203183824 205840768 208113584 209972720 
2919.939 211396320 212368720 212877408 212913520 212474880 211570960 
2922.832 210226368 208477936 206372720 203958480 201274784 198353664 
2925.725 195218144 191887232 188382752 184730848 180961648 177107744 
2928.618 173195936 169247280 165275648 161289088 157293952 153297216 
2931.511 149307312 145334400 141389776 137483952 133629632 129839960 
2934.404 126129168 122512080 119000160 115600368 112313496 109135432 
2937.297 106059928 103082560 100202856 97426304 94760928 92214752 89792728 
2940.672 87494728 85315792 83249392 81290608 79437880 77694104 76064256 
2944.048 74554384 73168736 71909400 70777584 69774440 68902168 68163608 
2947.423 67560848 67091420 66747324 66514284 66372572 66299036 66271560 
2950.798 66268892 66272324 66265540 66232844 66159220 66031396 65837452 
2954.173 65569440 65222500 64794520 64285152 63695156 63025452 62277508 
2957.549 61454532 60561040 59602444 58584524 57511488 56385820 55208576 
2960.924 53980748 52705536 51389828 50043768 48680080 47311716 45948824 
2964.299 44597876 43261000 41937128 40623900 39320472 38028072 36751584 
2967.674 35497752 34275312 33092596 31956070 30870314 29837060 28855616 
2971.050 27924156 27039434 26197828 25395612 24629134 23895234 23191754 
2974.425 22517468 21872592 21259220 20680074 20137758 19633070 19163282 
2977.800 18721954 18299462 17885698 17472054 17054806 16636202 16224019 
2981.175 15828447 15459330 15122431 14818191 14541811 14286872 14047072 
2984.551 13819102 13603183 13402032 13218907 13055662 12911695 12785281 
2987.926 12674938 12581540 12508828 12462486 12448505 12470772 12529461 
2991.301 12621040 12739694 12879985 13037565 13211494 13403126 13615902 
2994.676 13853104 14117338 14409922 14730432 15077456 15448034 15838688 
2998.052 16244417 16659440 17078206 17494614 17903550 18299876 18678508 
3001.427 19034102 19361302 19655534 19913714 20134806 20319554 20468846 
3004.802 20582194 20656930 20687544 20667982 20593382 20462942 20279696 
3008.177 20049402 19778344 19470342 19125020 18739460 18310728 17839228 
3011.552 17331512 16798662 16255114 15713343 15180930 14658730 14143456 
3014.928 13630091 13116580 12605076 12101532 11613136 11144768 10696669 
3018.303 10264739 9843068 9427088 9016614 8616127 8233601 7877560 7552895 
3022.160 7260984 6998564 6761172 6543990 6343694 6158747 5987653 5827741 
3026.018 5675207 5525645 5376235 5226743 5080823 4943564 4820855 4715498 
3029.875 4626677 4549592 4477944 4406241 4331672 4255075 4179863 4110316 
3033.733 4049042 3995936 3948587 3902848 3854606 3801524 3742866 3680240 
3037.590 3616220 3553779 3495589 3443318 3398200 3360166 3329046 3304339 
3041.448 3285175 3271020 3260804 3253193 3246283 3237136 3222515 3199182 
3045.305 3165070 3120048 3066087 3007062 2947778 2893238 2847076 2811658 
3049.162 2787914 2776176 2776309 2788414 2811658 2843974 2881664 2919823 
3053.020 2952515 2974599 2982907 2976468 2956818 2926895 2890203 2850511 
3056.877 2810424 2773041 2740630 2716123 2701986 2699786 2709521 2729493 
3060.735 2756268 2785246 2811858 2832235 2843374 2844275 2835136 2817828 
3064.592 2795084 2770540 2747365 2728026 2712622 2699952 2687416 2672481 
3068.449 2653245 2629642 2603042 2575109 2546512 2516784 2483026 2442239 
3072.307 2392060 2332793 2267339 2200763 2138658 2085152 2042139 2009316 
3076.164 1985416 1969306 1961252 1962117 1972734 1992074 2016273 2039676 
3080.022 2056254 2062014 2056554 2043671 2028990 2018238 2014443 2016407 
3083.879 2019303 2016906 2004356 1979858 1946340 1909698 1877550 1856786 
3087.737 1850862 1859780 1880479 1906902 1931996 1949835 1955959 1948204 
3091.594 1927470 1897184 1862975 1830997 1806941 1794497 1794065 1803314 
3095.451 1816989 1829134 1833426 1825241 1802383 1764388 1713356 1653317 
3099.309 1590094 1529839 1479500 1444625 1429333 1434519 1458455 1496988 
3103.166 1544436 1594816 1642774 1683552 1713689 1730954 1734380 1724567 
3107.024 1704441 1677964 1650191 1625712 1606788 1593153 1581547 1568046 
3110.881 1548593 1522091 1490405 1458355 1431793 1415969 1412512 1420523 
3114.739 1435250 1450808 1461613 1463774 1455662 1438009 1413243 1384856 
3118.596 1356736 1333370 1318913 1316254 1326823 1348891 1377709 1405664 
3122.453 1425144 1429532 1415603 1385155 1344072 1300534 1262284 1235235 
3126.311 1221878 1221512 1231381 1248859 1271755 1299870 1333171 1371493 
3130.168 1413144 1455064 1492732 1522025 1540380 1548227 1548360 1544104 
3134.026 1538551 1532133 1522756 1506464 1480364 1443894 1400911 1359461 
3137.883 1329614 1320674 1337491 1378407 1435749 1497985 1551918 1588298 
3141.740 1602997 1598075 1580217 1557837 1538584 1526048 1519764 1515608 
3145.598 1508259 1491934 1463541 1423316 1374186 1321771 1272553 1233474 
3149.455 1209119 1202473 1213505 1239489 1275942 1317218 1358298 1395526 
3153.313 1426341 1450476 1468196 1480331 1487479 1489474 1485784 1475976 
3157.170 1459352 1436114 1407227 1374285 1340383 1309175 1284948 1271290 
3161.028 1269994 1280694 1299471 1319777 1334533 1336793 1322967 1293555 
3164.885 1253412 1210082 1171840 1145461 1134532 1139017 1155827 1180179 
3168.742 1206627 1230716 1249059 1259759 1262517 1258031 1247763 1233840 
3172.600 1218223 1201809 1185130 1167355 1147920 1126791 1105896 1088158 
3176.457 1077230 1076134 1085268 1102076 1121443 1137322 1145163 1143668 
3180.315 1134798 1123170 1114733 1113005 1119483 1132638 1148883 1164498 
3184.172 1176857 1184432 1187555 1186160 1180412 1169249 1151541 1127157 
3188.030 1097359 1065173 1034947 1011267 996920 993334 999345 1012297 
3191.887 1028704 1046240 1063412 1080718 1099353 1121211 1147256 1176923 
3195.744 1207457 1234305 1252049 1255439 1241881 1211511 1168285 1118619 
3199.602 1069823 1028737 999610 984267 982275 992138 1011533 1038335 1069956 
3203.941 1103006 1133070 1154897 1163568 1156657 1134831 1102475 1066036 
3207.799 1032623 1007381 992071 985197 983304 982408 980648 977858 975832 
3212.138 976961 983039 994031 1009042 1026312 1044280 1061618 1077662 
3215.996 1091181 1100482 1103571 1098290 1084139 1062382 1036542 1010337 
3219.853 987887 971449 961686 957933 958797 963977 973275 986924 1004990 
3224.193 1025714 1046340 1063777 1074805 1078193 1074506 1065604 1053680 
3228.050 1039830 1024386 1006319 985131 961586 938541 920045 910914 913803 
3232.390 929143 953649 981743 1006418 1022127 1025449 1016814 999145 978489 
3236.729 960092 948602 945447 949200 955808 960291 958797 949698 935154 
3241.069 919780 909653 910350 924030 949731 983005 1017411 1046639 1066069 
3245.409 1073908 1070786 1059459 1042786 1024054 1005787 990013 978489 
3249.266 971714 968593 966766 962084 950296 929210 899924 867121 837839 
3253.606 819680 816825 829307 851451 874890 891590 895575 886245 866557 
3257.945 842421 819216 800261 786651 777622 772046 769921 772079 779647 
3262.285 792095 807862 823100 834520 839931 840827 840595 843915 854140 
3266.625 871005 890727 907494 915729 912907 901186 886344 876517 878044 
3270.964 893715 921506 955775 989016 1014788 1030231 1036641 1037870 1039797 
3275.304 1047037 1062316 1084571 1110281 1134465 1151940 1158883 1154066 
3279.161 1139349 1118453 1096463 1077728 1064475 1055939 1047901 1035346 
3283.019 1013459 980149 937810 892852 854107 830137 826950 845641 882891 
3287.358 931368 983039 1031161 1071517 1103405 1128419 1148850 1166126 
3291.216 1179482 1186691 1184665 1170711 1144465 1107325 1063744 1019172 
3295.073 979419 948967 930438 923631 926188 933560 940699 942758 936482 
3299.413 920942 897367 868748 839499 813439 793124 779879 772842 771116 
3303.752 773141 778684 788609 804609 828710 862041 904207 953018 1004525 
3308.092 1054278 1097957 1132472 1156292 1169249 1172405 1167123 1155827 
3311.949 1141242 1127124 1117490 1116327 1125961 1145993 1172804 1199948 
3315.807 1218987 1223373 1209318 1178219 1136591 1094503 1063146 1050624 
3319.664 1060855 1091314 1134698 1180013 1216595 1236232 1235003 1214069 
3323.521 1178718 1136924 1097160 1066235 1048299 1043716 1049528 1060456 
3327.379 1070454 1073443 1066335 1048632 1023788 997219 976530 968560 977393 
3331.719 1003994 1044845 1093008 1139316 1175229 1194632 1195795 1181243 
3335.576 1158186 1135196 1119649 1115596 1122440 1134930 1144565 1143236 
3339.433 1124865 1087461 1034084 970785 906465 849459 806203 780477 773042 
3343.773 781440 801821 828843 856696 880534 896371 902481 899360 890262 
3348.113 879638 872134 871337 878642 893416 912940 934423 955443 975400 
3352.452 994330 1012529 1029567 1043417 1051156 1049196 1035246 1009872 
3356.310 976430 940101 907926 885647 876616 881198 896637 918120 939703 
3360.649 956505 965272 965006 957070 944684 932032 922669 919647 924196 
3364.989 936117 953550 974105 994761 1012994 1026246 1032955 1032224 1024153 
3369.328 1010304 992835 974471 958232 945414 935452 926022 913371 893981 
3373.668 866125 831200 793821 760428 737526 729362 736630 756246 782004 
3378.008 807630 828478 842919 853144 863402 878642 902580 936515 978755 
3382.347 1025714 1072181 1113238 1144996 1165362 1174598 1174830 1170345 
3386.205 1165229 1163534 1166757 1173967 1181675 1184565 1177821 1158518 
3390.062 1127024 1087527 1047502 1014588 995160 991839 1002931 1022758 
3393.919 1043483 1058662 1063445 1057068 1041424 1020799 999577 981644 
3397.777 968294 959760 953716 947539 939371 928081 914666 901086 891159 
3402.116 888967 897899 919780 954181 997485 1043251 1084039 1112872 1124532 
3406.456 1117922 1096894 1068394 1041258 1023622 1020467 1031659 1052518 
3410.313 1075337 1092510 1098190 1090915 1073244 1051056 1030597 1017378 
3414.171 1014389 1022426 1040527 1067298 1101777 1143169 1189914 1239389 
3418.028 1286676 1325892 1351185 1358032 1345335 1314858 1271489 1220316 
3421.886 1166491 1114068 1065770 1023921 991009 969755 962151 968958 988286 
3426.225 1016647 1049362 1082312 1112839 1140445 1165561 1188452 1208055 
3430.083 1221413 1225134 1216561 1195895 1165860 1131941 1100116 1074240 
3433.940 1055806 1043052 1032921 1022925 1012097 1002001 996024 997119 
3437.798 1006717 1024153 1047137 1072580 1098190 1123303 1148385 1174232 
3441.655 1200347 1225666 1247231 1262484 1269894 1269030 1261553 1249723 
3445.512 1235900 1222177 1209717 1199284 1191077 1185661 1183469 1184997 
3449.370 1190379 1199982 1214236 1233674 1259327 1291528 1330545 1374452 
3453.227 1420656 1465902 1506663 1540512 1566350 1584340 1594483 1597443 
3457.085 1592954 1581082 1562925 1541643 1521559 1509423 1511185 1530238 
3460.942 1566782 1616998 1673972 1729124 1775500 1807839 1823777 1823344 
3464.800 1808837 1783185 1750914 1717914 1690803 1676667 1680991 1706238 
3468.657 1750315 1806375 1864572 1913858 1944210 1950368 1931563 1892459 
3472.514 1840780 1786479 1737807 1701082 1679028 1670779 1672808 1680226 
3476.372 1688309 1693531 1695094 1693997 1692866 1695028 1702645 1716117 
3480.229 1733782 1751846 1765353 1770044 1763290 1744593 1715552 1679294 
3484.087 1639315 1598707 1560265 1525915 1497221 1474646 1458156 1446453 
3487.944 1437378 1428734 1418296 1404833 1388213 1369399 1349955 1331409 
3491.802 1315091 1301996 1292691 1287341 1285812 1287341 1290431 1293190 
3495.659 1292824 1287839 1277670 1263979 1250521 1240718 1237827 1243210 
3499.516 1254940 1268997 1280063 1283552 1276407 1258928 1234870 1209949 
3503.374 1189615 1177721 1175196 1179748 1187588 1194167 1195496 1188718 
3507.231 1171840 1144166 1106395 1060223 1009208 958431 913438 879903 861610 
3511.571 860514 875222 901983 935353 969024 998116 1019570 1033553 1042653 
3515.910 1050790 1061751 1077064 1095865 1114699 1129316 1135960 1134000 
3519.768 1125164 1114035 1105564 1104368 1111710 1125695 1141641 1153468 
3523.625 1156923 1150146 1134930 1115630 1097758 1085468 1080983 1084637 
3527.483 1095034 1110348 1129283 1151840 1177887 1207291 1238392 1267368 
3531.340 1289202 1299072 1293389 1271556 1236066 1192439 1146458 1104103 
3535.198 1069291 1043151 1024718 1012164 1004193 1000806 1003297 1012762 
3539.055 1028637 1048299 1065936 1074772 1069324 1046938 1009407 962483 
3542.912 914799 874890 848197 836179 835482 840030 842819 839134 827448 
3547.252 809721 789472 770453 755815 747749 746986 753790 767266 784792 
3551.592 802850 817224 825257 826287 823564 821838 825888 838337 858190 
3555.931 881962 904108 921340 932763 942392 956140 980050 1016747 1062814 
3560.271 1109451 1145063 1160544 1152338 1123669 1083508 1043616 1013990 
3564.128 1000308 1002134 1014190 1027973 1034416 1028770 1011699 989614 
3567.986 969390 956273 951591 953749 959527 965803 969390 967663 958763 
3572.325 941994 918817 892022 866424 847367 838404 841093 854405 875089 
3576.665 899028 923366 946742 969523 992105 1014389 1034051 1047336 1049462 
3581.004 1036176 1005289 957070 894114 820543 741642 662456 588129 524331 
3585.344 476165 449132 446545 467441 505521 550539 592675 627282 654393 
3589.684 677755 701151 726308 751799 773506 786153 784693 766602 733411 
3594.023 690731 646229 607539 580465 567625 569748 586802 618489 664514 
3598.363 723222 791398 863104 930538 985728 1022526 1038202 1034150 1015053 
3602.702 986791 955343 926221 904041 892785 896139 916692 953982 1003629 
3607.042 1056503 1097957 1112507 1089022 1024818 926387 807564 685587 576152 
3611.382 493911 449397 447307 483661 544800 611820 664779 690764 686118 
3615.721 655488 609099 559994 522075 505654 515772 548980 595362 642281 
3620.061 679779 704603 718940 727868 736863 750637 771913 802418 842387 
3624.400 889831 940666 988153 1023622 1036774 1017644 960191 868283 762320 
3628.740 675399 638299 656815 712734 778751 834652 868648 878044 867519 
3633.080 846604 826917 818120 824527 843417 867785 888602 898762 894313 
3637.419 875620 845375 809290 773241 742206 720334 710178 713265 728963 
3641.759 754753 785788 815830 838669 849758 846736 829872 801389 764511 
3646.098 722890 679879 638133 599609 567559 546094 542146 561985 607340 
3650.438 672379 745492 813439 866025 897268 904871 887739 845707 779813 
3654.778 694547 599145 509237 442730 412648 421636 463328 526520 599178 
3659.117 671383 736464 789871 830569 859983 881065 897733 913139 929044 
3663.457 945514 961221 973707 980282 978223 965338 939802 901119 849724 
3667.796 787912 721197 658109 609928 586470 590618 615834 649216 679182 
3672.136 696538 695709 673242 627514 560757 483827 418784 389764 407972 
3676.476 464223 539326 616332 685487 742737 787182 819846 842487 856796 
3680.815 864100 865262 860979 852214 840927 829938 821606 816892 815265 
3685.155 813871 808759 796443 775597 748679 721794 703740 702114 718243 
3689.494 746090 776062 800327 816029 825224 832196 840927 852646 866557 
3693.834 879970 890760 897567 900655 900721 898164 891557 877347 850920 
3698.174 808593 749077 675432 595163 519819 463726 438485 449132 491092 
3702.513 552098 616797 672180 711506 732548 738223 733876 727238 726175 
3706.853 737626 765274 808460 860846 911213 946610 956273 936216 893782 
3711.192 846172 812742 805240 824328 860381 900256 932829 952653 957933 
3715.532 949333 927848 893715 846836 787547 719438 649382 587565 545397 
3719.872 531928 550904 598581 665144 735303 794086 831930 847035 844147 
3724.211 831465 817357 806501 800394 797705 796510 795779 796742 801589 
3728.551 812776 831698 858389 891291 927018 961420 989647 1008444 1017544 
3732.890 1021164 1026046 1040394 1070421 1116859 1172737 1223240 1253844 
3736.748 1255007 1226530 1175860 1113105 1048233 990278 945746 917190 903975 
3741.087 902348 907561 915496 924229 934656 950063 972910 1000440 1023157 
3745.427 1030929 1016581 978323 917123 836910 745160 652402 574957 529241 
3749.767 525558 561122 618788 675697 713265 725711 718907 705134 695012 
3754.106 695310 707922 730689 758736 786850 810352 827050 837806 846238 
3758.446 857095 873728 895508 918020 934921 940765 932995 913239 885083 
3762.785 853974 825291 804510 795713 800991 818884 845209 874259 900488 
3767.125 919879 930272 930472 920610 903178 882925 866391 860581 869279 
3771.465 892553 926454 965040 1001171 1028272 1042520 1043384 1035246 
3775.322 1025283 1022958 1036276 1069158 1120247 1182273 1241981 1283519 
3779.179 1294054 1268797 1213206 1139449 1061652 991042 933825 893018 869080 
3783.519 860946 866357 882094 903975 927716 949731 967530 979917 987157 
3787.859 990477 991507 992005 993201 996123 1001105 1008179 1017378 1028637 
3792.198 1041590 1055739 1069358 1080718 1086796 1084903 1072812 1050193 
3796.056 1018541 982009 945149 910948 880634 853144 827083 801423 777025 
3800.395 757607 747683 751035 766104 787016 805970 818518 823133 821606 
3804.735 817589 816328 823963 845276 881364 928081 977061 1020002 1051820 
3809.074 1071284 1078658 1075602 1063312 1043350 1017179 987190 956173 
3812.932 927151 904307 891557 893184 911246 943854 984134 1021065 1046107 
3817.271 1055739 1051322 1036475 1015385 992138 970220 954114 948270 955609 
3821.611 976098 1006186 1041657 1078293 1112839 1142272 1163667 1174465 
3825.469 1173501 1161740 1142505 1121111 1102076 1086597 1073377 1058762 
3829.326 1039099 1012031 978024 941429 909487 888768 883688 893549 913272 
3833.666 934755 950462 954579 944551 921838 891159 859817 834752 820377 
3838.005 816394 818286 817622 807630 784991 750836 710975 673308 646893 
3842.345 638962 653795 689801 740746 796543 847035 885747 910383 922868 
3846.684 927384 928977 931202 936050 943223 951225 958332 963147 965405 
3851.024 965770 964807 962483 957900 949797 940234 933726 935253 947307 
3855.364 969124 997485 1028537 1058530 1084737 1106129 1122871 1136392 
3859.221 1147787 1157255 1163634 1164398 1157255 1141342 1117523 1089055 
3863.078 1059626 1032490 1008843 988186 969622 953118 940234 933327 935386 
3867.418 948270 972976 1008278 1049694 1090350 1122772 1142970 1152172 
3871.275 1154299 1152438 1146956 1135861 1116095 1086198 1047901 1006352 
3875.133 968294 939039 920543 912907 914334 923333 938607 959328 984765 
3879.472 1013360 1042985 1070786 1094403 1113138 1127755 1139747 1150777 
3883.330 1161342 1171442 1179880 1185296 1186957 1185761 1183734 1183303 
3887.187 1185429 1190147 1196493 1202706 1206195 1204367 1194233 1173967 
3891.045 1143900 1107757 1072347 1045576 1033851 1040727 1065571 1104435 
3894.902 1150744 1195795 1230849 1248826 1245171 1218854 1173036 1114035 
3898.760 1049429 985861 927550 875554 829606 789373 756479 734672 728333 
3903.099 740879 772112 817224 868349 916360 954778 980980 995725 1002865 
3907.439 1006319 1011002 1020533 1037605 1063312 1096595 1135063 1174465 
3911.296 1210348 1237462 1251817 1250820 1233807 1202241 1159348 1110647 
3915.154 1063113 1024751 1002832 1000806 1016913 1044646 1074938 1099153 
3919.011 1113171 1117324 1116460 1117390 1126193 1145893 1175794 1211710 
3922.868 1247862 1278435 1299438 1309973 1312299 1310504 1308278 1307646 
3926.726 1308710 1310039 1309806 1306317 1298341 1284948 1265208 1238691 
3930.583 1205165 1165030 1120779 1076001 1035280 1003263 983138 976330 
3934.441 982241 999145 1024386 1054544 1085600 1113736 1135063 1147887 
3938.298 1151873 1149515 1144797 1142206 1144930 1153833 1166990 1180080 
3942.156 1188319 1188054 1178983 1163534 1146126 1130711 1119317 1111843 
3946.013 1106594 1101146 1093739 1083807 1072746 1062582 1055474 1052916 
3949.870 1055407 1062582 1073875 1088690 1106993 1128386 1152172 1177621 
3953.728 1203537 1228889 1253279 1276308 1298075 1318348 1335962 1349191 
3957.585 1355705 1353379 1341380 1320907 1294851 1267634 1244739 1230351 
3961.443 1227360 1235468 1252481 1273018 1291960 1304423 1307048 1299205 
3965.300 1281791 1257399 1228357 1197024 1164299 1131276 1099120 1070321 
3969.157 1049063 1041059 1051222 1082279 1132937 1197490 1266106 1327155 
3973.015 1370696 1389775 1383293 1354941 1313097 1267003 1224835 1192107 
3976.872 1170777 1159880 1156657 1158186 1162239 1167322 1173501 1181110 
3980.730 1190379 1201277 1212906 1224303 1233873 1240918 1245304 1247364 
3984.587 1248062 1248095 1247464 1245603 1241482 1234172 1223506 1210880 
3988.445 1198785 1190579 1188818 1195363 1209916 1230118 1252581 1273915 
3992.302 1290797 1301431 1305054 1301697 1292724 1280661 1269196 1262916 
3996.159 1266903 1284582 1317151 1361921 1412113 1458854 1492699 1505899 
4000.017 1495991 1465137 
##END=
