##TITLE=drugomas_4a Sep 23 08:09:23 2026 (GMT+02:00)
##JCAMP-DX=5.01  $$ Nicolet v. 970
##DATATYPE=INFRARED SPECTRUM
##ORIGIN=Vojna akademija
##OWNER=Nicolet
##LONGDATE=2026/09/23
##TIME=08:10:30
##SPECTROMETER/DATA SYSTEM=Nicolet iS20
##DATA PROCESSING=
Ratio against background
%Transmittance->Absorbance
Truncated
ElementMultiply or ElementDivide
##COMMENTS=
Number of sample scans: 8
Collection length: 11,90 sec
Sample gain: 8,0
Background collected on: Wed Sep 23 08:05:26 2026 (GMT+02:00);
Number of background scans: 8
Background gain: 8,0
Sample spacing:  1,000
Number of scan points: 12415
Resolution points: 8286
Number of FFT points: 65536
Apodization: N-B strong;
Phase correction: Mertz;
Laser frequency: 15798,00 cm-1
Number of rejected sample scans: 0
Number of rejected background scans: 0
Bench serial number: BER2010005;
##RESOLUTION= 4,000
##XUNITS=1/CM
##YUNITS=ABSORBANCE
##FIRSTX=400.156891
##LASTX=4000.123047
##FIRSTY=0.023335
##MAXX=4000.123047
##MINX=400.156891
##MAXY=0.123425
##MINY=-0.001681
##XFACTOR=1.000000
##YFACTOR=1.000000E-009
##NPOINTS=7468
##DELTAX=0.482117
##ZPD=6100
##XYDATA=(X++(Y..Y))
400.157 23335008 23155056 22350936 21150218 19930192 19081046 18841874 
403.532 19239024 20049092 20882784 21268302 20856502 19537158 17467776 
406.907 14975686 12433708 10156833 8338700 7101142 6514323 6618335 7435716 
410.763 8945444 11060365 13596380 16284525 18794054 20793512 22073698 
414.138 22585278 22427476 21751834 20678616 19233308 17353066 14973113 
417.513 12173630 9345626 7288411 6853057 8416899 11582542 15491949 19278024 
421.370 22340088 24396630 25348998 25259084 24306284 22788634 21061936 
424.745 19467396 18277310 17628998 17547086 17968502 18774748 19794540 
428.120 20821494 21657648 22124354 22120344 21648244 20820660 19836470 
431.494 18935590 18342282 18179900 18452692 19050478 19807476 20544952 
434.869 21131502 21521422 21755456 21932878 22142206 22410522 22672718 
438.244 22792860 22611004 22021860 21017592 19724944 18371802 17256896 
441.619 16651247 16707715 17419074 18612100 20024072 21380050 22500264 
444.994 23320568 23868382 24214414 24431504 24565246 24626994 24610444 
448.369 24506520 24313256 24036024 23677816 23232474 22682006 22004222 
451.743 21183336 20221062 19142714 17991158 16818122 15671743 14600027 
455.118 13652213 12880327 12343225 12085724 12115024 12367634 12718506 
458.493 13017523 13155821 13110946 12937876 12739046 12615991 12655971 
461.868 12901079 13340799 13919814 14562986 15201828 15784912 16279330 
465.243 16649939 16846676 16813300 16503295 15918182 15130150 14290536 
468.617 13592517 13221434 13326108 13969906 15122603 16649352 18345464 
471.992 19952880 21219242 21975328 22162638 21843602 21152408 20254490 
475.367 19297352 18392402 17625580 17045432 16664915 16457627 16368091 
478.742 16322916 16256731 16136011 15962007 15770273 15609742 15522751 
482.117 15515952 15555719 15567018 15464962 15178357 14678060 13989820 
485.492 13192161 12391942 11688251 11163024 10865280 10811673 10993957 
488.866 11376678 11899099 12476126 13021210 13456848 13735136 13850436 
492.241 13834530 13742318 13624347 13507604 13385117 13229803 13015406 
495.616 12741537 12444414 12192168 12049646 12051996 12179696 12366544 
498.991 12523084 12580688 12526698 12423104 12391533 12564897 13031658 
502.366 13776655 14674495 15523472 16131025 16355291 16145468 15543081 
505.740 14661506 13654435 12675961 11871005 11341237 11136133 11249962 
509.115 11624503 12156593 12707895 13139360 13330925 13221502 12834559 
512.490 12277506 11707279 11267712 11055370 11077803 11259211 11459305 
515.865 11534767 11381372 10978767 10395851 9767458 9244649 8939559 8908104 
519.722 9138755 9572376 10120101 10689809 11197634 11565460 11734613 
523.097 11668271 11366984 10879380 10312511 9817072 9540402 9594767 10002160 
526.954 10686073 11490842 12245911 12810636 13106985 13136799 12968258 
530.328 12716220 12499792 12419729 12525300 12807565 13207976 13641168 
533.703 14023356 14286667 14401222 14377350 14259513 14102483 13953550 
537.078 13826731 13695776 13495880 13147044 12588226 11803485 10843368 
540.453 9818496 8884904 8189299 7834914 7845170 8157426 8638975 9132597 
544.310 9517643 9732589 9798060 9794502 9828257 9977646 10262331 10638465 
548.167 11025631 11340353 11532419 11605036 11610482 11624435 11705815 
551.542 11875738 12105007 12330681 12476467 12487344 12343566 12065350 
554.916 11698021 11294203 10897216 10531891 10214361 9961169 9795993 9752040 
558.773 9858252 10125934 10535727 11037084 11554673 12002773 12313432 
562.148 12448642 12411341 12237868 11991498 11742443 11550284 11461277 
565.523 11496456 11653261 11907170 12221237 12552823 12863637 13131026 
568.898 13349341 13531360 13697930 13870140 14058743 14260747 14461200 
572.273 14640806 14784456 14886421 14951336 14993280 15031558 15085106 
575.647 15175166 15322493 15543940 15848964 16230762 16661093 17086132 
579.022 17436698 17640558 17639936 17416798 17000912 16466057 15900377 
582.397 15386822 14980007 14700167 14543148 14491415 14527490 14636146 
585.772 14803997 15012934 15234153 15432619 15574092 15637152 15622588 
589.147 15553383 15465510 15389911 15341234 15308146 15260440 15162127 
592.521 14993898 14763648 14510257 14286324 14146057 14126546 14236744 
595.896 14457021 14745309 15053375 15335537 15562587 15724648 15826490 
599.271 15881646 15905671 15909212 15893366 15851405 15771993 15645910 
602.646 15472515 15263220 15039859 14831870 14665447 14555790 14504433 
606.021 14501624 14530848 14576521 14628538 14679774 14722171 14742807 
609.396 14721520 14637928 14481754 14262732 14013090 13781444 13617611 
612.770 13548383 13566878 13627253 13663633 13605030 13406133 13063856 
616.145 12622233 12157649 11750817 11466925 11331748 11330388 11416374 
619.520 11534938 11635359 11685120 11675113 11613953 11522722 11424130 
622.895 11340966 11288388 11275091 11303113 11370352 11472165 11603505 
626.270 11759226 11933359 12117102 12296969 12454404 12568205 12620084 
629.644 12600164 12513262 12377316 12220317 12068621 11937650 11828101 
633.019 11727976 11620555 11495810 11359570 11233641 11148337 11127975 
636.394 11179887 11286790 11412564 11509623 11541539 11491353 11370963 
639.769 11213818 11067946 10979548 10978393 11075491 11260809 11511290 
643.144 11797560 12094581 12383282 12651536 12890464 13089193 13230144 
646.519 13289517 13237181 13045589 12702061 12217999 11634849 11019208 
649.893 10455448 10018367 9760952 9702365 9825613 10085848 10423137 10783955 
653.750 11126309 11429028 11688761 11912585 12111106 12295060 12475171 
657.125 12661736 12864832 13090082 13334445 13581543 13803129 13969495 
660.500 14057031 14060659 13996151 13896139 13797690 13728639 13700290 
663.875 13705214 13725732 13743959 13752578 13759932 13793175 13893642 
667.250 14108473 14455788 14891942 15321224 15664494 15901374 16057475 
670.624 16167719 16259104 16346553 16437219 16533894 16640676 16764119 
673.999 16912126 17091680 17307410 17561852 17857318 18199146 18594496 
677.374 19048678 19559478 20108986 20665792 21184414 21620348 21944900 
680.749 22155176 22276150 22349820 22423570 22532230 22692444 22905142 
684.124 23163024 23458796 23791970 24167438 24589966 25056044 25551018 
687.498 26047012 26512684 26921320 27257906 27521778 27725198 27887940 
690.873 28031940 28180302 28352338 28559156 28800452 29060762 29311232 
694.248 29514324 29638324 29669648 29622644 29536524 29466520 29466308 
697.623 29566742 29769882 30046788 30351834 30635050 30860994 31019828 
700.998 31125142 31208018 31305044 31451110 31666502 31956818 32311104 
704.373 32706660 33114158 33507402 33871844 34209704 34540720 34895116 
707.747 35304348 35784920 36330608 36911720 37487868 38020188 38490524 
711.122 38909576 39315248 39758776 40283636 40914188 41647468 42459404 
714.497 43315320 44185112 45050544 45905368 46749808 47584656 48409036 
717.872 49222740 50032764 50854916 51707968 52603984 53533148 54456492 
721.247 55305696 56003956 56479656 56681968 56590956 56208572 55552424 
724.621 54649220 53536820 52265752 50897536 49503424 48144240 46859784 
727.996 45662664 44539608 43464860 42415124 41381584 40371476 39400284 
731.371 38478576 37604848 36764712 35938652 35113836 34292236 33490260 
734.746 32729846 32025014 31373314 30756028 30150056 29538192 28922370 
738.121 28323866 27774292 27297810 26896716 26545054 26195822 25795778 
741.496 25303196 24705308 24020860 23295712 22585034 21946888 21426380 
744.870 21047608 20813710 20703842 20677536 20676182 20637300 20502468 
748.245 20230608 19812192 19271616 18663080 18051012 17499444 17051222 
751.620 16722761 16507288 16382473 16322952 16305441 16313765 16336231 
754.995 16361106 16377794 16377965 16361451 16338054 16327769 16350405 
758.370 16415058 16511727 16610622 16670287 16649663 16526837 16304649 
761.744 16008724 15673632 15330285 14993040 14659449 14317246 13960975 
765.119 13603183 13279370 13038282 12926816 12971502 13162583 13452542 
768.494 13764104 14018360 14147632 14117372 13930147 13621816 13248249 
771.869 12868279 12535327 12283505 12125961 12058503 12064056 12117545 
775.244 12190839 12259681 12303173 12308149 12268815 12186955 12069200 
778.619 11925935 11769235 11610346 11458659 11320763 11199334 11093235 
781.993 10998545 10908327 10815274 10712869 10598297 10473743 10347019 
785.368 10229559 10135736 10077200 10059905 10080999 10128479 10182306 
788.743 10219620 10222300 10180338 10096565 9985919 9871811 9777421 9717917 
792.600 9695283 9697790 9703550 9689253 9640229 9555982 9452756 9356358 
796.457 9295084 9288449 9339769 9434504 9545212 9639009 9685695 9668415 
800.314 9583351 9441682 9264145 9078526 8913685 8794684 8740014 8756952 
804.171 8841077 8975277 9135135 9294034 9429899 9533425 9609807 9675361 
808.028 9748516 9842797 9958321 10081134 10188072 10258022 10280380 10262229 
811.885 10224539 10196010 10202455 10256326 10354315 10480125 10614662 
815.259 10742382 10859709 10973806 11096600 11235953 11388209 11536434 
818.634 11654453 11714529 11696080 11593908 11419809 11200252 10968266 
822.009 10759941 10605495 10525509 10531212 10623490 10792346 11017134 
825.384 11270501 11520273 11736588 11900836 12007746 12067088 12098942 
828.759 12127290 12169405 12230643 12304093 12374009 12425320 12449767 
832.133 12450859 12442471 12443187 12466100 12515990 12586520 12664874 
835.508 12738261 12800944 12855958 12914289 12988298 13085676 13205960 
838.883 13341073 13477697 13603320 13710035 13795809 13862511 13914238 
842.258 13955706 13992216 14031809 14086192 14167589 14285571 14439688 
845.633 14616887 14791998 14934292 15020994 15043495 15015300 14964745 
849.008 14928256 14932440 14985495 15074437 15173416 15253542 15296237 
852.382 15300664 15280072 15253474 15233638 15221490 15205431 15171117 
855.757 15110595 15031627 14958469 14927605 14971193 15109051 15339244 
859.132 15638320 15965272 16273070 16521124 16678205 16729821 16676657 
862.507 16535580 16335130 16113315 15912235 15765635 15695067 15702041 
865.882 15771236 15873846 15980432 16072500 16146224 16212394 16286967 
869.256 16378447 16478861 16561085 16584873 16514171 16331449 16049189 
872.631 15708465 15373846 15112276 14973011 14977572 15111487 15330938 
876.006 15573886 15783399 15917186 15958363 15914779 15813088 15686616 
879.381 15562655 15456618 15368593 15289132 15205979 15113409 15016501 
882.756 14931069 14875758 14865745 14905144 14984157 15083253 15180415 
886.131 15261230 15324106 15381329 15451811 15553314 15692767 15860476 
889.505 16031312 16174046 16257832 16262166 16182678 16028801 15820922 
892.880 15583331 15342505 15121985 14941631 14817367 14758712 14767041 
896.255 14833619 14939642 15057525 15155265 15205533 15189749 15104146 
899.630 14958812 14777600 14590295 14426534 14311528 14259582 14272388 
903.005 14339916 14444518 14563157 14673091 14757169 14804889 14814042 
906.379 14788878 14737665 14667846 14585498 14494841 14399098 14305021 
909.754 14222776 14164782 14144243 14168068 14233801 14325808 14418725 
913.129 14484187 14497136 14446025 14335362 14186246 14026710 13886937 
916.504 13789071 13742318 13743584 13782367 13848076 13934287 14039988 
919.879 14167863 14317212 14478705 14632993 14752370 14809893 14785931 
923.254 14676278 14494052 14267868 14034136 13826081 13670608 13581543 
926.628 13560758 13601235 13691125 13814417 13953242 14090880 14211478 
930.003 14304302 14366698 14404476 14430713 14460344 14505598 14569976 
933.378 14647455 14725736 14793438 14847127 14894823 14953531 15044078 
936.753 15181479 15366808 15587006 15819238 16040182 16234372 16401088 
940.128 16553514 16713189 16899034 17120494 17372066 17637312 17891706 
943.502 18111876 18283668 18402428 18474164 18511540 18531074 18547778 
946.877 18573436 18614694 18670898 18735516 18797548 18846752 18877620 
950.252 18894336 18910082 18946216 19023026 19152722 19335180 19558024 
953.627 19801372 20045378 20279174 20501566 20720004 20942968 21174360 
957.002 21410158 21642288 21864054 22077880 22297356 22544374 22836896 
960.377 23179974 23557466 23935284 24268370 24516092 24657750 24697030 
963.751 24661678 24590386 24524576 24493444 24510622 24574644 24674022 
967.126 24791422 24908536 25009538 25080512 25111474 25098554 25044496 
970.501 24958016 24850396 24731264 24603220 24461966 24299382 24111006 
973.876 23902514 23693948 23513182 23392176 23353784 23404276 23532664 
977.251 23714804 23923276 24133948 24333406 24517878 24687876 24843940 
980.625 24983214 25101082 25196474 25276576 25358516 25465912 25623064 
984.000 25844480 26129874 26460952 26806132 27126576 27382604 27544266 
987.375 27591962 27520648 27339306 27071984 26753726 26422284 26114638 
990.750 25855030 25650374 25490472 25354336 25217402 25062046 24884290 
994.125 24693382 24507222 24341712 24205832 24095666 23998520 23896844 
997.500 23777762 23638488 23488558 23345814 23232928 23170014 23168792 
1000.874 23231040 23347070 23499470 23664032 23816332 23935284 24006364 
1004.249 24025588 23999500 23944352 23879480 23824698 23795120 23799076 
1007.624 23838910 23913158 24017568 24145894 24288658 24432662 24559250 
1010.999 24649824 24689348 24673602 24610864 24523700 24441354 24388850 
1014.374 24382260 24421866 24494708 24580042 24658872 24720424 24763780 
1017.748 24796334 24827522 24864290 24908010 24955174 25001746 25046952 
1021.123 25096202 25159958 25251326 25382404 25559276 25780028 26033608 
1024.498 26302156 26562312 26788086 26956012 27047158 27051848 26972054 
1027.873 26822730 26628116 26415948 26215178 26047820 25927936 25861256 
1031.249 25845676 25872614 25929098 26000856 26071500 26126178 26152958 
1034.624 26143738 26094544 26006906 25884888 25735164 25566832 25392556 
1037.999 25227480 25089814 24996832 24957910 24971738 25023682 25089568 
1041.374 25141840 25160098 25137698 25083880 25019048 24965140 24937312 
1044.750 24937100 24954508 24974792 24988164 24996376 25013852 25062222 
1048.125 25162942 25327538 25555128 25833860 26147574 26481940 26827804 
1051.500 27180898 27537910 27891720 28230438 28539624 28807602 29030686 
1054.875 29214400 29369724 29506878 29630554 29738834 29825952 29890298 
1058.251 29940386 29996192 30085210 30231040 30446824 30726474 31047586 
1061.626 31374742 31672846 31915590 32091468 32203860 32269060 32308962 
1065.001 32344446 32392136 32460116 32546174 32639928 32727200 32796696 
1068.376 32846942 32891258 32956098 33075326 33275966 33567644 33936076 
1071.752 34347852 34758620 35131800 35452804 35733072 36004128 36302148 
1075.127 36653692 37062572 37511996 37974040 38427096 38866708 39310244 
1078.502 39787388 40331480 40963776 41687692 42491084 43354168 44256832 
1081.877 45183436 46122080 47058404 47971396 48838668 49638912 50364944 
1085.253 51027420 51653292 52273340 52908868 53562420 54216996 54844552 
1088.628 55419368 55930760 56386572 56806872 57212916 57618052 58022624 
1092.003 58417368 58788764 59126536 59423612 59672380 59861088 59972000 
1095.378 59985088 59889728 59690328 59411228 59087356 58756672 58445004 
1098.754 58159884 57891420 57619152 57322324 56985988 56603672 56177348 
1102.129 55713580 55223476 54723816 54238320 53793156 53415096 53121280 
1105.504 52913696 52780024 52700788 52658664 52649804 52687248 52796976 
1108.879 53006936 53332484 53768812 54290052 54860528 55442408 56011720 
1112.255 56561136 57096360 57625396 58151060 58664808 59150532 59588988 
1115.630 59964656 60267980 60493084 60632772 60676856 60613720 60437180 
1119.005 60150828 59770508 59317208 58808720 58252628 57645068 56976732 
1122.380 56245120 55463752 54665980 53898624 53206324 52625116 52170504 
1125.755 51841944 51629560 51525348 51530384 51655904 51918260 52331904 
1129.131 52902920 53626412 54489808 55478244 56579440 57784936 59089708 
1132.506 60488176 61972932 63536264 65172180 66878484 68656208 70502416 
1135.881 72402976 74329424 76237280 78078912 79818744 81440864 82952776 
1139.256 84373664 85718928 86984160 88143440 89158600 90001920 90671128 
1142.632 91198448 91635136 92038120 92442576 92854104 93252632 93610256 
1146.007 93908152 94148312 94351952 94549144 94765080 95010744 95284192 
1149.382 95578040 95888696 96218520 96572432 96950728 97343128 97731352 
1152.757 98098168 98437648 98760184 99089400 99446032 99831600 100220056 
1156.133 100562952 100809448 100924056 100906128 100787472 100619720 
1159.026 100447104 100289928 100137968 99961672 99727240 99415488 99028960 
1162.401 98585728 98106136 97600744 97065648 96488424 95858488 95174280 
1165.776 94445056 93684328 92901496 92095584 91257592 90377728 89454640 
1169.151 88498624 87528248 86559632 85600320 84644880 83680176 82695240 
1172.527 81690024 80677584 79678768 78710640 77778984 76875504 75985824 
1175.902 75096864 74208056 73330720 72482096 71672984 70899352 70141400 
1179.277 69372552 68572192 67737408 66885016 66045596 65248960 64509160 
1182.652 63821480 63165688 62518620 61864068 61201152 60540888 59898512 
1186.028 59282376 58689988 58108556 57524460 56930192 56329380 55734108 
1189.403 55157484 54604992 54070088 53537384 52991028 52424052 51843848 
1192.778 51269156 50723928 50225400 49775336 49359144 48950956 48524252 
1196.153 48059660 47553016 47014388 46464780 45927352 45423368 44967264 
1199.529 44565164 44215816 43912500 43645700 43404036 43177292 42958532 
1202.904 42744632 42536756 42339140 42156432 41989788 41836380 41688716 
1206.279 41537928 41375352 41196728 41002196 40796608 40587520 40383332 
1209.654 40194068 40028936 39896740 39803840 39751112 39732268 39733104 
1213.030 39735320 39719672 39673344 39594828 39494844 39392772 39310860 
1216.405 39268100 39273864 39327476 39420784 39541040 39676288 39816912 
1219.780 39956892 40092636 40221872 40343844 40459556 40572716 40688484 
1223.155 40812476 40947468 41093096 41245656 41400860 41556344 41714504 
1226.531 41880636 42061368 42259884 42473360 42692536 42905128 43099128 
1229.906 43266196 43403120 43509540 43586092 43632292 43648304 43637272 
1233.281 43608480 43578880 43568512 43592504 43656284 43749360 43849228 
1236.656 43926320 43956788 43928812 43845564 43721804 43575840 43420184 
1240.032 43257668 43081160 42879488 42644172 42373184 42072212 41751308 
1243.407 41421164 41088468 40755992 40423876 40091072 39758448 39426988 
1246.782 39097264 38767284 38432636 38087860 37729228 37357960 36981272 
1250.157 36611372 36262344 35947544 35675912 35450724 35268952 35122456 
1253.533 35000296 34889368 34777964 34656760 34520304 34367900 34204112 
1256.908 34036296 33871488 33714652 33566000 33421620 33274998 33120490 
1260.283 32955594 32782618 32607426 32437016 32277662 32132998 32003540 
1263.658 31887240 31779564 31674520 31564404 31441740 31301092 31140840 
1267.034 30965844 30787112 30617984 30471418 30354748 30266068 30196372 
1270.409 30131376 30058470 29970312 29867406 29756362 29646732 29545250 
1273.784 29454570 29372632 29296308 29223722 29155434 29094206 29041418 
1277.159 28994164 28944682 28880758 28790608 28667558 28512132 28331860 
1280.535 28137912 27940446 27743952 27547054 27344140 27128976 26897738 
1283.910 26651332 26393976 26132338 25873070 25621868 25384230 25165224 
1287.285 24969982 24802928 24666272 24558234 24473848 24406092 24347424 
1290.660 24291952 24236734 24180258 24122566 24063410 24003318 23944108 
1294.036 23890612 23850634 23832222 23840974 23875174 23924676 23971104 
1297.411 23993862 23976880 23914488 23814198 23693704 23577126 23484922 
1300.786 23428894 23408752 23414032 23427636 23431832 23414698 23370812 
1304.161 23302600 23218178 23128462 23044318 22973606 22920334 22883554 
1307.536 22857920 22834382 22803652 22758116 22693666 22610968 22514292 
1310.912 22410486 22306250 22208354 22122542 22053896 22007918 21989060 
1314.287 21999446 22037616 22097960 22170100 22241098 22299554 22336076 
1317.662 22346366 22330842 22292438 22234020 22157478 22063378 21952954 
1321.037 21829594 21699374 21569540 21446432 21332996 21227348 21123536 
1324.413 21014532 20894952 20762786 20620204 20471450 20321602 20174548 
1327.788 20033026 19900532 19781676 19683686 19614628 19581316 19587278 
1331.163 19630158 19703516 19796760 19900428 20007072 20113256 20218908 
1334.538 20325664 20435260 20548148 20663950 20781694 20900722 21020062 
1337.914 21138528 21253758 21363204 21465716 21563692 21664438 21776568 
1341.289 21908274 22061426 22231334 22405706 22568806 22706722 22810706 
1344.664 22881846 22930534 22973152 23025068 23096276 23188364 23295396 
1348.039 23406374 23509684 23596016 23659972 23699336 23714244 23706826 
1351.415 23680720 23641252 23596016 23552462 23517204 23493946 23483208 
1354.790 23482264 23488698 23500660 23518918 23545398 23581988 23628378 
1358.165 23682190 23739090 23794456 23845070 23889212 23926392 23956152 
1361.540 23977860 23991690 24000936 24013892 24042608 24097172 24182430 
1364.916 24294720 24422110 24546700 24651052 24720530 24749502 24743470 
1368.291 24717164 24688858 24672410 24675532 24698258 24739120 24799876 
1371.666 24887692 25016346 25201846 25455582 25778410 26156126 26564004 
1375.041 26972688 27357654 27699594 27977586 28165982 28231392 28137698 
1378.417 27861088 27399368 26778218 26040892 25236962 24407844 23580134 
1381.792 22771524 21995266 21263780 20591262 19986914 19452774 18981658 
1385.167 18558566 18164630 17781750 17400726 17020518 16649043 16296944 
1388.542 15971186 15673598 15402544 15155197 14929868 14726147 14544656 
1391.918 14386563 14252357 14143113 14059187 13999710 13960872 13935450 
1395.293 13913896 13888544 13857003 13823173 13796630 13789105 13811064 
1398.668 13865419 13944654 14032254 14110184 14164474 14189259 14184945 
1402.043 14154854 14102038 14027736 13933431 13821429 13697964 13573099 
1405.419 13457702 13360754 13286578 13235576 13207566 13205243 13236225 
1408.794 13313876 13452474 13662949 13946810 14293755 14682138 15085895 
1412.169 15482747 15857968 16205687 16526632 16822978 17094920 17339754 
1415.544 17551328 17722624 17845788 17911872 17910248 17831184 17672028 
1418.920 17446460 17186880 16932728 16713360 16541811 16415711 16324328 
1422.295 16253395 16188560 16119333 16042210 15962489 15893504 15851231 
1425.670 15848104 15893159 15992189 16149491 16369021 16652830 16999154 
1429.045 17400002 17842300 18310520 18789486 19266144 19730008 20172952 
1432.421 20591054 20984694 21362194 21739084 22137428 22580392 23083906 
1435.796 23639888 24206252 24716812 25116598 25392240 25571190 25698356 
1439.171 25812868 25943730 26103870 26293462 26501626 26713484 26914412 
1442.546 27096212 27259248 27411296 27563400 27725728 27906736 28113166 
1445.922 28352480 28634076 28967916 29361004 29811508 30308274 30836520 
1449.297 31386458 31958458 32564030 33218876 33934072 34708008 35523532 
1452.672 36354888 37173116 37961024 38715880 39444728 40156412 40846624 
1456.047 41481420 41994792 42321204 42451436 42441792 42374172 42302468 
1459.422 42245460 42202404 42166436 42132116 42097288 42062024 42026800 
1462.798 41990812 41950192 41894724 41802344 41637692 41346556 40868572 
1466.173 40152488 39159844 37883432 36345988 34601676 32713734 30747918 
1469.548 28751204 26729200 24660556 22509896 20270738 18009288 15874876 
1472.923 14033383 12566022 11443350 10569167 9842458 9201327 8622414 8110972 
1476.781 7677288 7322242 7030487 6777225 6537801 6296324 6048227 5799231 
1480.638 5560580 5343495 5155051 4996015 4862502 4749464 4652397 4567171 
1484.496 4489293 4413873 4337328 4260161 4188762 4135739 4113795 4129885 
1488.353 4176551 4232055 4264243 4247714 4178223 4073992 3962363 3862997 
1492.211 3782605 3715562 3652439 3585516 3514361 3448094 3403744 3398067 
1496.068 3436372 3501635 3560627 3575961 3528825 3425618 3291552 3157627 
1499.925 3048536 2975934 2937203 2921024 2914186 2907448 2896607 2882864 
1503.783 2869790 2860918 2857082 2854147 2841506 2805155 2737129 2646311 
1507.640 2553645 2474461 2412651 2367340 2337957 2326564 2335192 2365374 
1511.498 2414983 2478460 2548445 2619342 2688517 2756302 2823597 2887701 
1515.355 2940405 2968261 2957519 2904879 2821930 2732461 2659445 2616609 
1519.213 2607275 2625242 2655745 2678415 2676515 2645444 2596942 2548279 
1523.070 2510019 2482092 2458799 2433875 2404488 2373836 2350016 2341854 
1526.927 2353248 2379866 2411451 2435475 2442739 2429644 2398491 2355546 
1530.785 2308409 2264275 2228704 2203660 2187675 2176253 2162866 2143553 
1534.642 2118480 2090746 2064078 2040774 2022032 2008184 1998132 1989910 
1538.500 1982121 1975630 1976962 1996001 2038677 2098470 2159836 2206691 
1542.357 2229504 2226973 2204759 2172823 2142288 2121344 2112188 2111189 
1546.214 2112287 2111488 2108225 2105728 2109324 2124707 2153010 2189706 
1550.072 2224142 2245357 2247389 2230636 2200430 2164365 2130833 2105395 
1553.929 2091478 2089547 2098004 2116183 2145351 2190040 2256315 2350116 
1557.787 2469163 2588742 2659212 2640577 2550112 2435741 2329895 2243225 
1561.644 2176852 2131566 2109058 2111588 2139058 2185477 2236931 2274967 
1565.502 2284393 2259912 2207290 2140223 2076296 2031054 2012545 2015941 
1569.359 2023364 2012978 1973267 1910862 1843908 1792268 1769711 1783218 
1573.216 1833260 1915755 2021899 2138325 2248887 2333959 2378367 2379333 
1577.074 2348018 2300914 2252151 2209921 2176453 2151445 2132165 2115317 
1580.931 2097804 2079326 2061814 2050295 2049430 2060649 2080092 2098470 
1584.789 2103431 2083155 2032851 1955893 1863640 1771341 1695660 1648561 
1588.646 1635457 1654315 1697955 1756437 1820184 1881078 1933161 1971603 
1592.504 1993738 1999563 1992673 1979824 1970804 1974632 1997200 2038910 
1596.361 2095174 2157006 2214417 2259912 2287957 2296185 2283660 2252118 
1600.218 2204226 2145651 2084153 2029056 1989710 1973500 1983120 2016340 
1604.076 2065609 2121444 2174188 2216115 2242626 2250852 2239662 2209155 
1607.933 2161335 2100301 2032219 1964879 1906203 1862742 1839050 1836255 
1611.791 1852759 1884638 1927569 1977028 2028956 2079459 2123375 2155674 
1615.648 2173389 2179350 2183745 2200496 2238563 2296384 2364508 2430910 
1619.505 2485525 2522050 2539113 2539880 2532714 2528315 2536714 2561977 
1623.363 2600042 2639343 2668280 2681682 2679815 2667580 2650978 2635476 
1627.220 2624609 2618075 2613809 2607642 2596842 2581142 2562544 2546046 
1631.078 2537547 2542346 2565143 2608308 2671480 2750000 2834703 2910850 
1634.935 2960221 2970096 2943441 2899242 2858916 2834303 2827332 2834570 
1638.793 2852779 2880663 2918389 2965792 3020274 3076365 3125287 3157794 
1642.650 3166906 3149317 3106499 3045332 2978303 2923225 2904979 2950647 
1646.507 3076432 3275193 3514228 3753160 3963098 4133832 4265481 4362295 
1650.365 4430141 4473659 4497730 4507573 4511055 4516780 4528230 4542125 
1654.222 4552739 4560306 4567506 4576346 4585621 4590945 4585655 4561981 
1658.080 4514637 4442895 4351217 4248483 4144235 4047537 3963734 3894623 
1661.937 3840199 3800019 3774985 3766395 3774216 3795775 3825657 3858451 
1665.795 3888538 3912777 3930565 3943939 3956578 3972361 3993127 4015198 
1669.652 4032086 4037671 4029645 4010549 3984499 3954438 3922105 3888472 
1673.509 3856077 3832176 3828131 3856512 3922674 4019144 4128714 4234129 
1677.367 4325849 4400652 4461440 4514135 4565999 4623227 4691147 4773450 
1681.224 4874833 5003859 5173392 5397505 5678631 5983756 6239547 6375333 
1685.082 6383706 6311217 6212926 6123965 6062406 6037039 6050209 6101081 
1688.939 6185399 6297030 6427117 6566696 6707430 6842790 6969439 7087805 
1692.797 7202700 7322545 7459311 7625288 7826378 8054126 8281082 8474131 
1696.654 8616262 8716146 8797998 8892040 9027102 9228471 9508701 9849949 
1700.511 10201030 10508977 10753930 10945193 11100407 11233097 11352155 
1703.887 11466585 11590268 11743940 11948276 12214148 12535293 12892068 
1707.262 13262460 13631903 13996801 14360773 14730124 15109360 15497374 
1710.637 15889620 16283149 16680891 17095264 17546844 18057678 18642502 
1714.012 19299916 20009500 20742698 21477658 22217558 22993904 23853820 
1717.388 24816574 25844588 26857976 27784360 28600950 29334842 30035674 
1720.763 30754676 31530734 32384892 33319466 34322820 35379792 36480352 
1724.138 37625476 38822788 40077336 41385336 42735672 44120372 45550232 
1727.513 47060248 48705468 50539748 52585992 54809628 57124472 59420080 
1730.889 61631564 63786440 66035488 68638512 71928992 76164384 81259328 
1734.264 86642016 91542960 95530312 98675080 101296344 103701056 106094368 
1737.639 108570840 111134904 113714320 116199032 118462984 120397488 
1740.532 121918296 122950832 123425296 123294864 122561328 121296408 
1743.425 119623648 117678944 115540016 113209152 110628952 107735816 
1746.318 104510824 101007960 97330112 93596976 89878144 86165016 82378016 
1749.693 78435168 74320376 70116200 65994756 62138248 58665260 55595952 
1753.069 52873876 50402676 48077872 45804544 43502656 41116116 38631344 
1756.444 36092044 33593452 31249248 29140196 27292128 25678776 24239920 
1759.819 22902102 21594856 20272024 18925276 17594182 16346794 15246439 
1763.194 14322109 13563391 12933848 12389896 11891846 11411884 10936324 
1766.570 10464884 10007890 9579388 9190836 8845439 8537993 8258860 7998570 
1770.427 7751793 7516720 7294981 7089017 6899141 6723717 6558656 6399913 
1774.285 6244152 6088144 5928733 5762765 5588840 5408307 5225469 5047568 
1778.142 4882775 4738510 4619845 4527895 4458092 4401556 4347870 4288737 
1781.999 4220613 4145205 4067638 3994464 3932069 3884192 3850327 3826025 
1785.857 3803930 3778394 3746342 3709948 3674960 3650133 3643116 3658219 
1789.714 3692771 3736249 3769202 3767498 3713189 3603891 3457847 3303872 
1793.572 3168508 3064986 2994083 2948945 2920557 2901510 2886934 2874592 
1797.429 2862719 2847843 2824398 2785380 2725959 2646511 2555411 2466730 
1801.286 2394226 2346918 2325398 2322233 2327430 2332360 2332427 2327364 
1805.144 2319902 2312107 2303413 2290788 2269071 2234999 2189573 2139757 
1809.001 2095740 2068439 2065676 2088115 2130234 2182347 2235832 2285692 
1812.859 2331328 2374103 2414650 2450002 2474295 2479860 2461799 2419581 
1816.716 2359378 2291121 2225773 2170425 2126738 2091112 2058551 2025794 
1820.574 1992773 1962516 1938220 1919782 1902310 1874955 1824143 1739637 
1824.431 1620856 1481096 1344504 1239090 1185362 1191642 1254741 1363283 
1828.288 1499548 1640313 1762292 1844840 1879081 1869630 1830864 1777596 
1832.146 1720276 1664127 1610280 1558369 1508392 1460649 1416235 1376679 
1836.003 1342876 1317517 1304589 1310105 1340150 1398650 1483556 1584873 
1839.861 1686512 1768680 1811399 1801185 1734314 1622120 1490072 1375914 
1843.718 1315822 1326557 1396656 1491236 1573034 1614637 1607886 1558835 
1847.576 1481794 1391071 1297543 1206494 1117756 1030464 946842 873363 
1851.433 820743 799929 815962 865494 935154 1006352 1060589 1087162 1084836 
1855.773 1060456 1025117 989880 960623 937445 916227 891524 861012 827415 
1860.112 797373 780079 783564 811049 861444 929642 1010171 1099386 1198088 
1864.452 1311335 1447218 1613473 1812664 2036713 2264408 2458200 2570110 
1868.309 2560577 2416216 2162333 1852393 1547030 1290332 1100847 975533 
1872.167 897268 844479 799663 755782 717845 698928 710875 757740 829905 
1876.506 906033 958730 966634 921971 835715 732482 643940 599078 612151 
1880.846 679348 779547 884319 963213 994363 970652 901485 809589 723587 
1885.185 671848 671284 725678 824162 945813 1063545 1150412 1189084 1176525 
1889.525 1125562 1059559 1005090 980149 990511 1030696 1088922 1151475 
1893.382 1206328 1245935 1266671 1269529 1257831 1237362 1214069 1194167 
1897.240 1183535 1185961 1203071 1231946 1264976 1290232 1293422 1262284 
1901.097 1188353 1070786 917024 744331 577213 440972 359454 346587 403760 
1905.437 517099 660333 797771 892387 918086 864133 741177 576649 409564 
1909.776 275994 199380 185325 222651 291810 373349 455998 539160 629870 
1914.116 738257 872101 1032290 1211013 1391869 1552417 1670247 1727162 
1917.974 1718413 1656078 1565153 1470058 1388745 1324895 1269761 1203470 
1921.831 1102741 951192 745260 499451 242608 9178 -172627 -283766 -315387 
1926.171 -269196 -154211 15208 220695 439148 644272 808692 907229 925126 
1930.510 864332 745160 600372 465849 370563 325498 322944 340519 354745 
1934.850 349704 324702 292672 271717 273176 296153 325498 340519 324768 
1939.189 274900 200440 120558 54939 13021 -8184 -21271 -37207 -53640 -51752 
1944.011 -1822 123773 336739 624959 954015 1281027 1561927 1767083 1887600 
1948.351 1931330 1916254 1860379 1776465 1668151 1534760 1375814 1195895 
1952.208 1006850 826718 674503 569151 526852 557672 666306 849758 1094636 
1956.548 1377144 1667453 1932994 2141755 2270470 2299515 2216415 2016340 
1960.405 1703643 1295017 821274 326691 -139074 -531178 -815226 -984157 
1964.263 -1055757 -1069904 -1066169 -1070830 -1081241 -1068285 -986472 
1967.638 -798888 -496726 -103630 336473 775033 1173136 1508625 1768380 
1971.495 1940549 2010714 1958356 1767415 1434419 981278 453709 -86305 
1975.353 -572642 -961412 -1241512 -1430027 -1556726 -1641535 -1681078 
1978.728 -1652163 -1522950 -1274616 -914563 -477166 -10304 430292 793024 
1982.585 1040527 1153335 1133967 1009540 827515 652236 548184 575090 762354 
1986.925 1099685 1525815 1951799 2286158 2463098 2467863 2338890 2155674 
1990.782 2000329 1931796 1952930 2010282 2016706 1894822 1612409 1197755 
1994.640 728997 305503 18389 -85841 -10503 194208 458485 708220 891590 
1998.979 988917 1008046 968128 888004 776261 629870 442797 213833 -46385 
2003.319 -311182 -539021 -684771 -701973 -555931 -237737 228320 785323 
2007.176 1354575 1849365 2203727 2383565 2395259 2280696 2102232 1921579 
2011.034 1776664 1673573 1590426 1496157 1365544 1198453 1022592 886743 
2014.891 834652 892055 1051388 1275111 1505267 1687311 1790971 1817854 
2018.749 1796094 1760928 1737142 1726962 1707335 1639647 1490571 1244573 
2022.606 914201 535776 161724 -156596 -383886 -506357 -534421 -492225 
2026.464 -408383 -302342 -178986 -32668 145781 361278 608502 872333 1133735 
2030.803 1374684 1583709 1752411 1873690 1934459 1914989 1795662 1562093 
2034.661 1218024 791862 336971 -74942 -379483 -530913 -521018 -374551 
2038.518 -140035 133550 411454 680244 947473 1231614 1545301 1882475 2214250 
2042.858 2492156 2665346 2691050 2552111 2262843 1867733 1428036 1008278 
2046.715 669292 452349 374808 425516 568753 748745 905967 994961 990411 
2051.054 893748 730822 543108 371591 248278 187877 187048 231105 303448 
2055.394 394175 503398 637934 802385 991839 1188452 1364945 1490006 1541843 
2059.734 1512449 1409952 1252847 1060921 851086 633653 416661 210385 30384 
2064.073 -105022 -182198 -199951 -173753 -131886 -105850 -117609 -168851 
2067.931 -238400 -290918 -294594 -230319 -104558 53547 201402 302055 336905 
2072.270 311041 247946 178397 127452 103257 98584 95171 78402 41618 -8548 
2077.092 -58146 -91738 -102140 -92135 -71762 -52282 -38003 -24120 298 46887 
2081.914 118569 206374 288063 337899 335644 274801 168022 42778 -63612 
2086.253 -119431 -103697 -14148 135937 320557 509569 677589 805240 883954 
2090.593 916526 914434 894578 877446 882825 923698 1003529 1111145 1220848 
2094.933 1296347 1299438 1204168 1004127 720965 398453 97027 -128839 -243268 
2099.272 -241148 -147322 -11762 107831 165768 138389 31345 -124499 -282640 
2103.612 -398353 -438969 -391169 -263964 -83721 110516 280603 393048 428336 
2107.951 383828 276359 140676 19383 -41051 -7388 132688 365522 656151 954015 
2112.773 1207756 1382396 1462876 1458289 1392866 1298108 1199383 1111710 
2116.631 1039199 978821 926852 882925 848994 828146 818751 812344 794850 
2120.970 751898 676195 571872 456595 355076 293998 288560 338828 426113 
2125.310 521080 589290 601965 546558 426744 263429 87747 -64407 -163253 
2129.649 -190280 -141161 -26108 133815 309648 474075 604354 687843 723719 
2133.989 721695 698430 671516 656948 666107 702811 765407 848297 943123 
2138.329 1040527 1133070 1213737 1275178 1311136 1311036 1261586 1148319 
2142.186 957867 687279 351163 -12955 -350979 -597757 -692677 -600569 -318500 
2146.526 114857 632458 1145196 1570440 1850629 1959621 1907401 1729557 
2150.383 1481528 1220416 999544 858124 812410 853443 947606 1047137 1094768 
2154.723 1043982 872101 588196 227325 -155635 -504702 -779143 -958338 
2158.580 -1039726 -1032355 -941641 -768691 -514200 -192035 165337 506085 
2162.438 768494 909055 911014 796311 612384 417656 258091 153570 95535 59943 
2167.259 23724 -21702 -64672 -78752 -37472 71707 240354 438651 627946 771581 
2172.081 848795 858389 818618 759997 714360 710046 761524 869445 1018640 
2176.421 1186160 1342045 1460051 1524186 1529440 1482060 1392933 1268565 
2180.278 1107192 899791 639725 330803 298 -303732 -529887 -633127 -599874 
2184.618 -452971 -250255 -63480 47980 52620 -40421 -194519 -358230 -490206 
2188.957 -569598 -595374 -578367 -528365 -446913 -328532 -170540 17230 
2192.815 211280 375968 482202 520715 506948 473013 453344 465384 498423 
2197.154 517099 477956 354778 151216 -93891 -323466 -479284 -528993 -476206 
2201.494 -356144 -214920 -94322 -15473 23128 35057 31710 13783 -31376 
2205.833 -119100 -256083 -432018 -621348 -791116 -914893 -985182 -1012158 
2209.691 -1017612 -1019066 -1019727 -1003463 -944485 -818533 -619330 -365314 
2213.548 -97005 140245 308057 390295 397989 362936 327355 324271 371691 
2217.888 465517 585873 702213 785688 817556 791265 712933 598315 467275 
2222.228 336739 219734 122513 45164 -16301 -65699 -105485 -133410 -143910 
2226.567 -129203 -82661 -2286 105677 226032 337468 412449 424986 357000 
2230.907 203523 -21735 -287640 -547658 -754601 -869097 -871180 -767104 
2234.764 -585977 -373591 -173024 -16036 88775 152940 202429 263561 350268 
2239.104 458618 568322 648950 671549 619849 494575 314754 112438 -72524 
2243.443 -200878 -244096 -186040 -29720 204882 478885 746919 963080 1092177 
2247.783 1119915 1053846 920045 751433 582621 437291 326061 250532 207800 
2252.123 195501 214330 264689 342674 435334 522672 581493 594699 558136 
2256.462 483993 396265 322779 287532 302453 366219 468071 592575 725445 
2260.802 855235 974072 1075934 1155495 1210381 1242147 1258463 1270824 
2264.659 1290764 1324230 1366674 1402938 1414307 1384025 1307380 1194732 
2268.517 1070454 964276 899858 888370 922967 983072 1039996 1068992 1055075 
2272.856 996123 902016 791132 685354 602994 558369 557937 599145 671848 
2277.196 759599 844213 909121 945115 950827 932464 898496 856099 806501 
2281.535 745525 666837 567658 453643 341580 253980 214131 237072 324238 
2285.875 462963 629107 797273 943688 1053049 1118420 1139548 1119550 1063080 
2290.215 976596 869611 754985 650079 571208 530767 531629 567393 622172 
2294.554 677556 718940 738755 739020 727735 715854 710411 713365 720268 
2298.894 724782 720832 706727 685421 663485 648519 645566 656483 679480 
2303.233 711075 747285 785788 825656 866656 908291 948536 983404 1008677 
2307.573 1020201 1016349 998647 972312 944385 922502 912774 918020 937312 
2311.913 967065 1002400 1039498 1077429 1118354 1166990 1227859 1302262 
2315.770 1387116 1473582 1548526 1597610 1609815 1580583 1515308 1427737 
2319.627 1338721 1269628 1235235 1239887 1274613 1320508 1352481 1350121 
2323.485 1304190 1219917 1115463 1017710 953185 938873 978788 1061419 
2327.342 1164232 1258729 1321073 1339485 1317118 1269761 1218256 1180877 
2331.200 1164066 1161541 1156790 1132339 1075170 983503 866756 743169 633520 
2335.539 555648 520914 531596 583020 664282 762685 864764 957136 1029501 
2339.879 1073576 1085468 1066335 1023057 966467 909354 863867 837341 830735 
2344.219 838039 849160 852679 841292 815199 782236 755516 748712 773838 
2348.558 837009 937744 1067398 1210315 1345202 1448780 1505167 1511950 
2352.416 1483789 1447185 1432990 1460749 1530770 1620856 1696957 1723336 
2356.273 1677398 1558103 1386085 1197124 1028371 911811 865627 892022 978622 
2360.613 1101711 1231846 1334434 1379371 1346764 1234172 1060223 864067 
2364.470 694680 593438 584214 663717 803813 961885 1098588 1190745 1237129 
2368.810 1254940 1268631 1297909 1347628 1406595 1453003 1466268 1433688 
2372.667 1355805 1245769 1122871 1005555 906631 831698 780112 749044 735435 
2377.007 737427 753757 781672 816493 851384 879472 896205 900289 894877 
2381.346 885647 878907 879405 888469 903809 921208 935154 941031 936880 
2385.686 923333 903145 880899 861377 847898 841657 840927 841458 837806 
2390.025 824494 799165 763051 721263 681173 650278 633189 629339 633620 
2394.365 637834 634217 617560 588594 551833 514843 484192 463262 450492 
2398.705 441304 430326 414140 394009 375239 364959 368772 387940 417490 
2403.044 447440 465617 462864 435964 389997 337037 293865 275729 292042 
2407.384 343735 423128 515772 605084 678485 728266 754255 761756 759001 
2411.723 752695 747085 742439 736962 729461 720600 713497 712933 722525 
2416.063 741908 766005 785954 792792 779979 747550 702280 656417 623599 
2420.403 613744 630833 671184 724848 778983 823000 849758 858356 852911 
2424.742 840927 830403 827548 835582 853509 877380 900289 914932 915629 
2429.082 899990 870541 835084 804775 790667 800858 836445 889831 946012 
2433.421 987024 996289 964309 891690 789937 678186 577446 506848 477326 
2437.761 490561 538861 608966 686284 757176 813605 852413 875023 884751 
2442.101 884751 876384 858190 826917 779680 715621 638465 556179 480643 
2446.440 425185 400377 412615 461338 540288 637768 740414 836445 916426 
2450.780 975168 1011002 1024153 1016083 988452 943521 884286 815498 744231 
2455.119 677788 624329 590020 577711 586736 612915 649747 690034 727702 
2459.459 759034 782502 798867 809489 815664 818186 816925 811448 801655 
2463.799 788443 773374 758437 745625 735900 729395 725744 724549 726607 
2468.138 733776 748114 771448 803713 842620 883622 920809 948502 962383 
2472.478 960324 942193 909951 866557 816361 764411 716517 678883 656583 
2476.817 652169 664182 686715 711274 728665 732614 722392 703707 686051 
2481.157 680974 697202 737161 796643 865893 932165 983171 1010669 1010968 
2485.497 985330 938773 878708 813406 750438 696937 657678 634748 627216 
2489.836 631563 643276 657512 672080 687047 704371 725844 751732 778950 
2494.176 801688 813971 811547 795381 771946 751898 747019 766270 812377 
2498.515 879604 954911 1021895 1062515 1062814 1015983 924130 798203 655322 
2502.855 517364 404158 330339 302154 316843 363566 427341 495238 558435 
2507.195 615370 669525 726839 791298 862108 933593 997385 1046904 1079289 
2511.534 1097625 1108554 1118785 1131044 1142505 1145229 1130878 1093440 
2515.392 1034018 960988 888602 830669 797672 792593 810319 839798 866889 
2519.731 879737 869578 832992 772046 693419 607307 525724 461802 425815 
2524.071 424820 459082 523568 606909 694580 773407 832295 864465 868084 
2528.410 844247 795846 726872 643177 551899 463228 389101 340055 324205 
2532.750 342973 391190 457556 528511 592310 642015 677290 703342 728399 
2537.090 759366 799464 846803 895541 937378 964907 973906 963977 938773 
2541.429 904108 867387 835316 813240 805140 812145 833789 866523 904738 
2545.769 940633 965704 972711 956804 917821 860415 793887 728997 676228 
2550.108 642612 630401 636507 653961 675631 695344 710278 721363 732183 
2554.448 745658 763880 785589 806999 823498 830270 824925 807829 781805 
2558.788 750969 720500 695144 678717 674137 682799 704437 735900 772345 
2563.127 806203 829839 837474 826685 799597 763283 727935 703607 698032 
2567.467 714891 752263 804078 861676 916592 962483 996655 1020002 1036641 
2571.806 1052053 1070288 1093074 1118619 1142073 1156292 1155461 1136392 
2575.664 1100382 1052949 1002367 957037 922635 899758 885149 873031 857526 
2580.003 836246 811215 789472 779680 790468 826585 886876 964475 1048299 
2584.343 1125861 1185495 1219818 1226197 1207092 1169448 1121975 1073975 
2588.200 1032589 1002167 983670 975865 976297 982872 995027 1013426 1038435 
2592.540 1069358 1102608 1131608 1148817 1147521 1124898 1083973 1033519 
2596.397 984599 949100 934689 942193 966335 997418 1025117 1041557 1044015 
2600.737 1035778 1023688 1015950 1018806 1034482 1060855 1092045 1120779 
2604.594 1141309 1150445 1149315 1141741 1134133 1132505 1140644 1159348 
2608.452 1185362 1212906 1235202 1246866 1245337 1231846 1210913 1188984 
2612.309 1172438 1165561 1169614 1183103 1201078 1218622 1230982 1235701 
2616.167 1232311 1222974 1211511 1201975 1197921 1201776 1214103 1234039 
2620.024 1259094 1286510 1313230 1336561 1354642 1366142 1370297 1366740 
2623.882 1355772 1338621 1317450 1295881 1278734 1271290 1278302 1303326 
2627.739 1347628 1409919 1486482 1571205 1656477 1734780 1798490 1841812 
2631.596 1861344 1856652 1830798 1789174 1739437 1688741 1643306 1606722 
2635.454 1579751 1561362 1549324 1541809 1537553 1535990 1536888 1539482 
2639.311 1542508 1544137 1543472 1540246 1536622 1535891 1541410 1555243 
2643.169 1576891 1603529 1629736 1649792 1659770 1657940 1645967 1628040 
2647.026 1609648 1595182 1587600 1587067 1591357 1596745 1599439 1596678 
2650.884 1587965 1575229 1562492 1555276 1558901 1577024 1610513 1656943 
2654.741 1710396 1763057 1807107 1835922 1846304 1838750 1817555 1789340 
2658.598 1761726 1741499 1732650 1735977 1748685 1765818 1781389 1790505 
2662.456 1790738 1783019 1771607 1761627 1758799 1766351 1783984 1808438 
2666.313 1834458 1856519 1870728 1876419 1875454 1871394 1867933 1867966 
2670.171 1872725 1881943 1894788 1910530 1928801 1949403 1972135 1995768 
2674.028 2018670 2039143 2055788 2068173 2076563 2081357 2082422 2079193 
2677.885 2070370 2055389 2035514 2013644 1994071 1981122 1977295 1982487 
2681.743 1993638 2006154 2015874 2020468 2019935 2016340 2011746 2007020 
2685.600 2000961 1991208 1975664 1954162 1929400 1906236 1889797 1883574 
2689.458 1887101 1896153 1904805 1906603 1897817 1878083 1850496 1820283 
2693.315 1792268 1770110 1755272 1747355 1745358 1747654 1753176 1760662 
2697.173 1768646 1775234 1778860 1778694 1775134 1770343 1766783 1767083 
2701.030 1772140 1781089 1790738 1797059 1796194 1785148 1763523 1732584 
2704.887 1695294 1656144 1620124 1592322 1576692 1576492 1591723 1620723 
2708.745 1658539 1699053 1736044 1764122 1780890 1786412 1783085 1774269 
2712.602 1763024 1751546 1740768 1731054 1723070 1717847 1717248 1723536 
2716.460 1737940 1760828 1790505 1824010 1857318 1886702 1908732 1921778 
2720.317 1925706 1922411 1915355 1908566 1906370 1911961 1926937 1950468 
2724.175 1980057 2012013 2042139 2067108 2084886 2094907 2097804 2095040 
2728.032 2087816 2077894 2066508 2054856 2043870 2033883 2024928 2016773 
2731.889 2009083 2002193 1997666 1997766 2004689 2020268 2043437 2070736 
2735.747 2096006 2112654 2115117 2101067 2071968 2033317 1992806 1957424 
2739.604 1932462 1920281 1919948 1928967 1944210 1963482 1985050 2007952 
2743.462 2031187 2052692 2070537 2082156 2085885 2081623 2071069 2056954 
2747.319 2042971 2032385 2027225 2028257 2034383 2043437 2052492 2058551 
2751.177 2059783 2055455 2046667 2035814 2026426 2021466 2022731 2030288 
2755.034 2042006 2054423 2063745 2067507 2064910 2057653 2048664 2041740 
2758.891 2039642 2043737 2053192 2065743 2078261 2087649 2091711 2089281 
2762.749 2080990 2068273 2053591 2040075 2030288 2026293 2028723 2036879 
2766.606 2047932 2058785 2065476 2065443 2058218 2045568 2031420 2020634 
2770.464 2018204 2026759 2046933 2076196 2110223 2143986 2172690 2193636 
2774.321 2206191 2212219 2214417 2216415 2220878 2229337 2242026 2257847 
2778.178 2275666 2293920 2312207 2330661 2350383 2373003 2400223 2433376 
2782.036 2473262 2519250 2569777 2622976 2676315 2727859 2776209 2820429 
2785.893 2860484 2896240 2927395 2953182 2972898 2986877 2996052 3003258 
2789.751 3012333 3026981 3050004 3081604 3119347 3158462 3192974 3217708 
2793.608 3228824 3225486 3209496 3185163 3158228 3135667 3124753 3132029 
2797.466 3163001 3219878 3301134 3400304 3507447 3610373 3697416 3760981 
2801.323 3798917 3814794 3816164 3812354 3811685 3819039 3836120 3862897 
2805.180 3898200 3941097 3991254 4047905 4109246 4171901 4232356 4287566 
2809.038 4337763 4386360 4439447 4503221 4581703 4674300 4776565 4880630 
2812.895 4979357 5068653 5149217 5225503 5304015 5390795 5488296 5596022 
2816.753 5710557 5828682 5947678 6067513 6188894 6313234 6440804 6570531 
2820.610 6700464 6829293 6957082 7086087 7219578 7361737 7515472 7682684 
2824.468 7864198 8060843 8273855 8505249 8757121 9030315 9323452 9632471 
2828.325 9951643 10274680 10596735 10915530 11231975 11549637 11874001 
2831.700 12211014 12566533 12946035 13353954 13794475 14271532 14788399 
2835.075 15348237 15953859 16608728 17316824 18083170 18913578 19814828 
2838.451 20793616 21856772 23010428 24260138 25611114 27067856 28634004 
2841.826 30312254 32103814 34008348 36022776 38142012 40356388 42650532 
2845.201 45003832 47388168 49767868 52105572 54360232 56492488 58468204 
2848.576 60256560 61831552 63171284 64254956 65063820 65581268 65795228 
2851.952 65700284 65300176 64609884 63652716 62460536 61069600 59514844 
2855.327 57831228 56049904 54198940 52306004 50397096 48497240 46630640 
2858.702 44816804 43071868 41406476 39826172 38332772 36925464 35601568 
2862.077 34358396 33193372 32105490 31095492 30165364 29319066 28561314 
2865.453 27895820 27324874 26847332 26458592 26149158 25905990 25713826 
2868.828 25554672 25411140 25266812 25107578 24922958 24706396 24454604 
2872.203 24168244 23849934 23504788 23138524 22758956 22374902 21996730 
2875.578 21636090 21304250 21011332 20764732 20568020 20420812 20319934 
2878.954 20261434 20242064 20260428 20317506 20415396 20555894 20738666 
2882.329 20960388 21215624 21497188 21798516 22115812 22448726 22800264 
2885.704 23175642 23580624 24019180 24492288 24997146 25527752 26076460 
2889.079 26634104 27193488 27748898 28297732 28840250 29379650 29921146 
2892.455 30470280 31032888 31612936 32212284 32830682 33465710 34114244 
2895.830 34772868 35438680 36109864 36785300 37464788 38148308 38836272 
2899.205 39530152 40231904 40944880 41672488 42418448 43185964 43977096 
2902.580 44793332 45635204 46503352 47397924 48318964 49266200 50238644 
2905.956 51235860 52258240 53308284 54390464 55510624 56673776 57881272 
2909.331 59129916 60412160 61717608 63036376 64363576 65699048 67046800 
2912.706 68411040 69791608 71179888 72559072 73904592 75191408 76397136 
2916.081 77504816 78503448 79383784 80135464 80743904 81191256 81458848 
2919.457 81532960 81406856 81082944 80570312 79883264 79036016 78042304 
2922.832 76915616 75669008 74317784 72879904 71374208 69820712 68238512 
2926.207 66643940 65051468 63471904 61913660 60381472 58876748 57398288 
2929.582 55942140 54504008 53080880 51672472 50281272 48912944 47573640 
2932.958 46268608 45000596 43770320 42575644 41414384 40285668 39190308 
2936.333 38131300 37112768 36138672 35211488 34332360 33500854 32715234 
2939.708 31973366 31272392 30608528 29976880 29371106 28785298 28214808 
2943.083 27658274 27118642 26603738 26124946 25693296 25318756 25006272 
2946.458 24755536 24560724 24412822 24301308 24215782 24148066 24091850 
2949.834 24042116 23995404 23947608 23894638 23832222 23755712 23660778 
2953.209 23543964 23402248 23233348 23035864 22808958 22553100 22270116 
2956.584 21963234 21637274 21297638 20948880 20593660 20231614 19860194 
2959.959 19474604 19070592 18646340 18203464 17747716 17286584 16828318 
2963.335 16378999 15941966 15516845 15101367 14693860 14293344 13900587 
2966.710 13517448 13144824 12781561 12424570 12068962 11710955 11349196 
2970.085 10986446 10628788 10284248 9960322 9661268 9388116 9138484 8908104 
2973.943 8693058 8490889 8300737 8122315 7955136 7797231 7645149 7494436 
2977.800 7340844 7181511 7015266 6843430 6668095 6492696 6321067 6156697 
2981.657 6002905 5862399 5736778 5626298 5530142 5446388 5373216 5309583 
2985.515 5255216 5210378 5175102 5148244 5126652 5106637 5084041 5056250 
2989.372 5023936 4990451 4960924 4941117 4934984 4944133 4967593 5002719 
2993.230 5046160 5095238 5148177 5203940 5261890 5321793 5383314 5446958 
2997.087 5513396 5583839 5658993 5738658 5821260 5903777 5982782 6055048 
3000.945 6118353 6171552 6213766 6243614 6259211 6257699 6236959 6196658 
3004.802 6139054 6068521 5990643 5910662 5831872 5755547 5680712 5605991 
3008.659 5529706 5450817 5368151 5279866 5183586 5076029 4955260 4821123 
3012.517 4676812 4527326 4378059 4232791 4091920 3953268 3813289 3670148 
3016.374 3525551 3386011 3259769 3155124 3076298 3022209 2986610 2960354 
3020.232 2935168 2905680 2870357 2831068 2790148 2749033 2706587 2660112 
3024.089 2606609 2545079 2477260 2407320 2339922 2279030 2226273 2180782 
3027.947 2140090 2101799 2064511 2028291 1994803 1966011 1943811 1928934 
3031.804 1921079 1918617 1919116 1918916 1914390 1901378 1877184 1840880 
3035.661 1794398 1742265 1690670 1645900 1612076 1590759 1580283 1577157 
3039.519 1577257 1576758 1573799 1567314 1557172 1543173 1524918 1501876 
3043.376 1474380 1443495 1411348 1381166 1355905 1337890 1328883 1329781 
3047.234 1340615 1360624 1387614 1417598 1444558 1461347 1461979 1442597 
3051.091 1404135 1352215 1296646 1247862 1214900 1202307 1209418 1230750 
3054.948 1259028 1287308 1311402 1330611 1346831 1363217 1380900 1399082 
3058.806 1413509 1419327 1411116 1386451 1345535 1292658 1234205 1177389 
3062.663 1128917 1092709 1069856 1059028 1057500 1062416 1071782 1085468 
3066.521 1103903 1127223 1154365 1181774 1204268 1216761 1214900 1197523 
3070.378 1167123 1128785 1088357 1051654 1022094 1001038 988252 983470 
3074.236 986592 998614 1020533 1051720 1089487 1128718 1163302 1187057 
3078.093 1196725 1192174 1176558 1154830 1132406 1112939 1097393 1084870 
3081.950 1072314 1056537 1034482 1004459 966169 920809 871238 821838 777987 
3086.290 745326 728598 730689 751633 788510 836843 890793 944418 993101 
3090.630 1032988 1061320 1076499 1077994 1066402 1043948 1014788 983271 
3094.487 954081 930306 912940 900821 891424 881962 871039 858788 846736 
3098.827 837142 832528 833789 841225 853509 868715 884219 897035 904141 
3103.166 902813 891856 872001 846736 821440 802053 793223 796377 808858 
3107.506 824560 836312 838204 828444 809556 788410 772378 767897 777357 
3111.845 798767 826619 854173 875454 887506 889897 885182 876683 867719 
3116.185 859784 853476 847832 842089 835283 828278 822336 819514 821838 
3120.525 830237 844114 861211 878276 892287 902115 908656 915563 927284 
3124.864 947075 974836 1006053 1032423 1045078 1037206 1007481 961055 908856 
3129.204 862971 834055 826917 839864 865727 894778 918983 934124 940467 
3133.543 941828 943322 947871 956173 965870 973043 974105 966501 949997 
3137.883 926155 897666 867851 839864 816361 799364 789273 785688 786385 
3142.223 788709 790336 790568 790203 791796 797904 809688 825855 842188 
3146.562 853277 854472 843848 823133 797107 772179 753591 743899 742804 
3150.902 747384 754786 762420 769556 776029 781539 783896 779846 765407 
3155.241 738721 700554 656151 613578 582024 568023 574758 600472 639327 
3159.581 683098 724151 756479 776958 784726 781506 770386 755450 741476 
3163.921 733577 735601 750239 777257 813307 852579 888270 914201 926554 
3168.260 925557 914567 899692 887075 881663 885514 897500 913438 927417 
3172.600 933925 928546 909653 878575 839864 799962 766635 746919 745990 
3176.939 766469 806800 862307 924661 984666 1032822 1061652 1067232 1050060 
3181.279 1014323 966733 915530 867619 826486 792128 761756 731287 697401 
3185.619 660200 623499 594035 578839 583617 610393 656848 716816 782535 
3189.958 846371 901916 945149 973740 986924 985263 970917 948071 922801 
3194.298 902779 895309 905237 933228 974836 1022293 1065471 1095931 1108587 
3198.637 1102475 1080086 1045742 1003994 957867 910350 864631 824428 794850 
3202.977 780610 784195 804842 837507 873927 904971 923598 926255 914367 
3207.317 892819 868316 847168 833590 829208 833391 843749 857294 871138 
3211.656 882692 889399 889233 880932 864830 842122 815796 789838 767233 
3215.996 750471 740547 736896 737659 740945 744331 745592 743136 736033 
3220.335 724450 710743 698364 692755 699359 722857 765208 824262 893715 
3224.675 963944 1023722 1062216 1072081 1051355 1004426 940433 873296 817589 
3229.015 784593 780875 806004 853011 910117 965770 1009573 1036077 1044845 
3233.354 1038867 1022725 999843 971847 938773 900821 860149 821340 790435 
3237.694 773506 772876 786651 808161 829241 842321 844147 836711 826353 
3242.033 820311 823963 837873 858522 879472 894645 901684 902514 902946 
3246.373 909254 925889 952454 984998 1015618 1036973 1043882 1035246 1014024 
3250.713 985961 958631 937677 927483 929409 941994 962117 985064 1006252 
3255.052 1022028 1030397 1031360 1027408 1021264 1015884 1012994 1012297 
3258.910 1011732 1009108 1002798 993201 982408 974006 971249 976231 988584 
3263.249 1006120 1025681 1044015 1058928 1069922 1077263 1081017 1081415 
3267.107 1077263 1067398 1051023 1028471 1001503 972943 946244 924296 909387 
3271.446 902115 903078 911844 928181 951989 982740 1019138 1058994 1098290 
3275.786 1132838 1158219 1170910 1169282 1154564 1129748 1099419 1068760 
3279.643 1042421 1023091 1012197 1009208 1012729 1020733 1031992 1045244 
3283.501 1060223 1076233 1092742 1108022 1120314 1127057 1125961 1114832 
3287.358 1092975 1060821 1021065 979087 941695 916924 911910 930604 971880 
3291.698 1029501 1093108 1150744 1192938 1215365 1220017 1214369 1207723 
3295.555 1208487 1220050 1241050 1266139 1289434 1307048 1319478 1330246 
3299.413 1344504 1365178 1391304 1417432 1435682 1439206 1424546 1393465 
3303.270 1352215 1309773 1273417 1248195 1234604 1230284 1230451 1231049 
3307.127 1228789 1221546 1208786 1190977 1169515 1147422 1128685 1118187 
3310.985 1119782 1135296 1163169 1198652 1234538 1264378 1284017 1292625 
3314.842 1293356 1290963 1290199 1293422 1300634 1309408 1316885 1320840 
3318.700 1320907 1318314 1315124 1314060 1316885 1324762 1338223 1356802 
3322.557 1379138 1403038 1424911 1440636 1446919 1442531 1429599 1412977 
3326.415 1399515 1395592 1404301 1424745 1452172 1479533 1500546 1511884 
3330.272 1514111 1511252 1508525 1510288 1518168 1530703 1544270 1555144 
3334.129 1561029 1562426 1561827 1562891 1569476 1582811 1602066 1623982 
3337.987 1644304 1658273 1662231 1654747 1636521 1610247 1580217 1551452 
3341.844 1528209 1513746 1509889 1516439 1532732 1557571 1590094 1629470 
3345.702 1674671 1723469 1772140 1815791 1849299 1868532 1871760 1860579 
3349.559 1839016 1812431 1786046 1763024 1744627 1730089 1717747 1706870 
3353.417 1697955 1692466 1692832 1700283 1714521 1733116 1752045 1767249 
3357.274 1775633 1775833 1769212 1759198 1749916 1745492 1748918 1760994 
3361.131 1780191 1803614 1826971 1845904 1857152 1858649 1850097 1833160 
3364.989 1810335 1785514 1762691 1745625 1737507 1739836 1752611 1773870 
3368.846 1800386 1827171 1849831 1865071 1871560 1870396 1864838 1859547 
3372.704 1858849 1866203 1883174 1909498 1943378 1981855 2021766 2059450 
3376.561 2091312 2115051 2129402 2135362 2136061 2136294 2140623 2151944 
3380.418 2169593 2189240 2203827 2206158 2192371 2163499 2126438 2091711 
3384.276 2071402 2073966 2102166 2152610 2217048 2285026 2346818 2395925 
3388.133 2428677 2444105 2442938 2426511 2397258 2358845 2317237 2279663 
3391.991 2254516 2248488 2264242 2300382 2350649 2406687 2459333 2501421 
3395.848 2528349 2538713 2533648 2515817 2489124 2457966 2426711 2399790 
3399.706 2380733 2371704 2373703 2385464 2404654 2427411 2450303 2469863 
3403.563 2482892 2487124 2481659 2466364 2443905 2419115 2397891 2386863 
3407.420 2390828 2410552 2442505 2479260 2512118 2533014 2538447 2529715 
3411.278 2512685 2495122 2484758 2486291 2501121 2527449 2561244 2599475 
3415.135 2638510 2676348 2710555 2738863 2758503 2767573 2765405 2753868 
3418.993 2737262 2721624 2711988 2711955 2722191 2739696 2760070 2778143 
3422.850 2789681 2791649 2782678 2762404 2732494 2695485 2655945 2619975 
3426.708 2593542 2582242 2588442 2610708 2644010 2680815 2713389 2735995 
3430.565 2745831 2743931 2733761 2719090 2703020 2687250 2671414 2655111 
3434.422 2638277 2622009 2608775 2601608 2602942 2614375 2636210 2666413 
3438.280 2702086 2738696 2770574 2791082 2794283 2775375 2732361 2667713 
3442.137 2588809 2506153 2431343 2374269 2339789 2327597 2332160 2345852 
3445.995 2360110 2369505 2372770 2373237 2377301 2391127 2418948 2461432 
3449.852 2515451 2574843 2632509 2681315 2714622 2728793 2721991 2695118 
3453.709 2651044 2594442 2531115 2467130 2408486 2359344 2322333 2297683 
3457.567 2284626 2281762 2287857 2302846 2326964 2360477 2402056 2448003 
3461.424 2493556 2532581 2559677 2571976 2569377 2554411 2530248 2499521 
3465.282 2463631 2422613 2377201 2329296 2283594 2246722 2224941 2221610 
3469.139 2235032 2258213 2280196 2289889 2280163 2250120 2205991 2158404 
3472.997 2119379 2096938 2093376 2104097 2120312 2131932 2131632 2116649 
3476.854 2088615 2052459 2013311 1975597 1942613 1916454 1898749 1891527 
3480.711 1895920 1911595 1935224 1960619 1979891 1985915 1975297 1949203 
3484.569 1913059 1875620 1845738 1829367 1828036 1838251 1852626 1862509 
3488.426 1861444 1846736 1820416 1788076 1757302 1735145 1725931 1730621 
3492.284 1746556 1768912 1791303 1808105 1815858 1813695 1802782 1785880 
3496.141 1765752 1743862 1719644 1691069 1655911 1612675 1562293 1507894 
3499.999 1455696 1412578 1384656 1376014 1386617 1411681 1442830 1470723 
3503.856 1487014 1487346 1472185 1446287 1416601 1390240 1372790 1366574 
3507.713 1370629 1380501 1391005 1397021 1395891 1388711 1379238 1372258 
3511.571 1370961 1376080 1385387 1394794 1400179 1399481 1393066 1384191 
3515.428 1377609 1376945 1383925 1397420 1413509 1427770 1436181 1437245 
3519.286 1431593 1421587 1410052 1398451 1387149 1374751 1359461 1339818 
3523.143 1315988 1289601 1263713 1241649 1225367 1215764 1211843 1211411 
3527.000 1211611 1210448 1207192 1203636 1202573 1208022 1222509 1245869 
3530.858 1274746 1302428 1321505 1324862 1308809 1274879 1229487 1182073 
3534.715 1143136 1120280 1116095 1127124 1145096 1160412 1164963 1155362 
3538.573 1132206 1098788 1059559 1017478 974139 930206 886577 846504 814800 
3542.912 798701 804477 834652 886510 950727 1014223 1063578 1090118 1092975 
3547.252 1078559 1057168 1039498 1032623 1037804 1051853 1068461 1080651 
3551.109 1083408 1075436 1059991 1043816 1033021 1031560 1038966 1051089 
3554.967 1061652 1064840 1057898 1041756 1020766 1001437 989880 989249 
3558.824 998481 1012064 1022493 1021629 1004393 970087 922204 866955 811016 
3563.164 759864 717347 684890 663784 655289 661759 685487 726209 778585 
3567.503 832395 876019 900190 901418 882493 850222 813074 779846 758437 
3571.843 753591 766967 797008 839698 890295 944186 997916 1048798 1094137 
3576.183 1130878 1155063 1163102 1152405 1123835 1081747 1034416 992271 
3580.040 964110 955310 965040 987024 1010802 1024851 1020334 992536 941662 
3584.380 873031 795547 719538 656284 615735 603292 617825 651041 690399 
3588.719 724748 747650 758337 760628 760561 764743 779680 808626 851550 
3593.059 903311 955011 995459 1015186 1010902 985263 946012 902348 862174 
3597.398 828976 803514 783796 768328 757142 752861 758802 777390 807398 
3601.738 842719 873562 889831 883057 849226 790170 711838 624959 542013 
3606.078 475999 438352 435765 468569 529572 606511 684724 752396 803116 
3610.417 835615 852048 856995 855667 852413 851019 852447 855103 856099 
3614.757 852081 841060 823133 800991 779116 764312 762685 777821 807730 
3619.096 844512 876284 892586 889465 869312 839366 808095 783132 768262 
3623.436 763582 765872 769722 769324 760794 743202 719770 696737 682434 
3627.776 685222 708519 746886 786651 815863 830303 833192 830503 827714 
3632.115 827448 830104 833358 833955 828710 815232 793290 764279 730656 
3636.455 695178 661693 634947 619418 619650 638232 673872 721562 771979 
3640.794 814369 837175 832893 800028 744994 679115 617162 572933 556644 
3645.134 574161 625689 706727 806203 910084 1005190 1083209 1143236 1188917 
3649.474 1221944 1238326 1229786 1190745 1123137 1035944 941230 850189 
3653.331 773208 717812 688474 685885 705565 737128 766868 784593 786950 
3657.671 777622 763416 750670 742439 739053 738356 737128 733046 724549 
3662.010 711838 695808 677257 656450 632226 603558 569450 530667 489267 
3666.350 448634 414373 393412 393578 422830 485552 577977 684226 781605 
3670.689 848961 878144 873728 847500 812842 782070 767366 778751 820709 
3675.029 885315 951956 998182 1014289 1006485 986459 964010 943820 926387 
3679.369 909453 889764 865295 836976 807298 779780 756943 738356 720865 
3683.708 699625 668994 625689 569914 506716 445350 398586 382104 408967 
3688.048 484656 601069 737427 866623 966069 1024419 1040893 1021198 973740 
3692.387 907660 830735 749210 669259 596059 534582 488571 459679 446744 
3696.727 444621 447208 447904 442697 431254 416893 405750 405418 422366 
3701.067 458585 510132 567492 619650 658375 680310 687014 682799 672379 
3705.406 659072 644570 628576 609165 584679 555350 523634 496134 481936 
3709.746 490859 529572 597320 683828 771183 841624 883389 894744 881729 
3714.085 854273 821739 792161 770453 759333 759532 770154 789107 813373 
3718.425 840163 866125 888768 905170 912309 906465 884585 844413 786485 
3722.765 714692 636241 559663 494707 449729 430724 439214 471654 519355 
3727.104 571474 618788 656649 685288 708287 730391 755848 786651 821008 
3731.444 853509 876749 884651 875056 851650 821373 793290 774303 768395 
3735.783 774768 790435 810684 832561 853642 870242 877679 870175 842122 
3740.123 791497 721429 640920 563013 504991 485220 519023 609729 736929 
3744.463 857294 927483 934689 896670 843549 801190 789141 818518 892321 
3748.802 1002699 1130412 1249723 1336095 1377144 1375183 1342543 1291661 
3752.660 1231182 1164730 1093307 1017810 940467 865328 797738 744131 709614 
3756.999 697036 705798 731254 765972 801921 831200 848297 851185 840960 
3761.339 821606 798402 777025 762951 760694 772743 798800 833789 869246 
3765.678 895641 907096 902580 885813 863469 842155 826785 819083 817058 
3770.018 816029 811580 801688 787448 772046 758636 748579 741476 734141 
3774.358 722989 704503 678053 646196 614673 591580 584911 600007 637303 
3778.697 689270 743003 782867 797838 785722 752064 707523 662655 626917 
3783.037 606245 602795 614739 637170 663452 687843 707291 720500 727370 
3787.376 728598 724848 716816 706727 697866 694282 699857 716816 744331 
3791.716 778518 813506 843018 862772 870839 868183 857825 844147 830237 
3796.056 818220 808095 798601 788510 778087 769623 766868 774137 796012 
3800.395 834221 885182 937113 975467 991308 984533 962815 936050 914467 
3804.735 906598 918684 952354 1001570 1051089 1081913 1081581 1049329 995392 
3809.074 934124 879239 839366 818054 813340 819581 829341 837408 842487 
3813.414 848363 861444 888237 930870 982275 1027242 1048100 1036176 995127 
3817.754 936980 875056 822900 791730 790004 820643 876650 940035 989083 
3822.093 1011068 1005787 981378 947938 915231 890993 880766 886643 905701 
3826.433 930704 951591 959627 951524 930239 902348 876583 860116 856065 
3830.772 861809 868615 865594 842553 795481 727038 646329 565535 497096 
3835.112 452647 441204 466844 528278 617859 721330 820676 899559 947606 
3839.452 963512 954181 930571 902746 877812 858522 844147 832162 819846 
3843.791 806336 792560 780942 772975 768727 766303 762652 754753 740613 
3848.131 720235 695377 669160 645333 627581 618622 621973 641285 680410 
3852.470 739120 808493 870043 905104 907561 883954 846039 804145 765175 
3856.810 732415 706262 685056 666372 649017 633222 621442 617361 624760 
3861.150 645599 679016 720766 765772 808427 843915 868947 880434 876218 
3865.489 855899 821639 777954 732116 693717 673009 680443 721728 791995 
3869.829 873064 941197 981610 993798 987854 976629 970585 974271 985197 
3874.168 995326 995725 980648 951192 912475 871802 835615 808692 794385 
3878.508 794551 809788 838669 876749 916692 949964 970120 974770 965571 
3882.848 947739 928015 914069 911313 922038 942426 962981 972478 965338 
3887.187 941728 906897 867818 831299 803813 790535 794684 816228 850787 
3891.527 889665 923499 945016 950727 941596 921340 895143 868283 845243 
3895.866 829507 822568 824826 835582 852745 873695 895375 913936 925889 
3900.206 928811 922403 909221 894977 887075 893151 917356 958365 1008046 
3904.546 1054809 1086564 1096263 1083176 1050624 1004094 949266 891391 
3908.403 834055 781174 736464 703275 684292 680609 690133 707822 727171 
3912.743 742339 749873 750239 747285 746687 753690 770087 793456 818087 
3917.082 836777 845442 844180 837175 829540 824793 823465 822801 819050 
3921.422 809356 794186 777058 764146 761325 772776 798402 833524 870972 
3925.761 904008 928745 944086 951159 951491 946444 936615 922669 905668 
3930.101 888137 873329 864996 865361 874491 890495 910051 930339 949731 
3934.441 968626 988120 1008976 1030995 1052019 1069026 1078725 1078957 
3938.298 1069557 1052352 1030032 1005289 979651 953716 926720 898098 869113 
3942.638 842354 821705 810717 810817 820377 835250 849691 858389 857825 
3946.977 847898 832295 817821 812244 820278 842587 874325 907295 932331 
3951.317 942891 936648 916791 889997 865494 851550 853609 872798 906166 
3955.656 948270 992536 1033121 1066900 1092775 1111677 1125330 1135130 
3959.514 1141309 1143335 1140179 1130811 1115131 1094403 1070886 1047768 
3963.371 1027773 1012562 1002898 998049 996422 995990 994761 991440 984732 
3967.711 974670 961187 944817 926421 907229 889067 873861 864067 861809 
3972.051 868316 883290 905137 930306 954646 974006 985330 987754 981909 
3976.390 970585 956937 943355 931269 920278 908457 893118 872367 845574 
3980.730 813971 780709 750106 726010 711141 706262 710311 720699 733676 
3985.069 746654 757242 764777 769490 773042 777622 785921 800261 822668 
3989.409 853210 890627 931634 971648 1005522 1029467 1041125 1040660 1030065 
3993.749 1012762 992337 971117 950893 931800 913637 896172 879837 865229 
3998.088 852812 842885 835051 828245 821938 815962 
##END=
