##TITLE=drugomas_3 Sep 22 15:40:49 2026 (GMT+02:00)
##JCAMP-DX=5.01  $$ Nicolet v. 970
##DATATYPE=INFRARED SPECTRUM
##ORIGIN=Vojna akademija
##OWNER=Nicolet
##LONGDATE=2026/09/22
##TIME=15:41:25
##SPECTROMETER/DATA SYSTEM=Nicolet iS20
##DATA PROCESSING=
Ratio against background
%Transmittance->Absorbance
Truncated
ElementMultiply or ElementDivide
##COMMENTS=
Number of sample scans: 8
Collection length: 11,90 sec
Sample gain: 8,0
Background collected on: Tue Sep 22 15:40:03 2026 (GMT+02:00);
Number of background scans: 8
Background gain: 8,0
Sample spacing:  1,000
Number of scan points: 12415
Resolution points: 8286
Number of FFT points: 65536
Apodization: N-B strong;
Phase correction: Mertz;
Laser frequency: 15798,00 cm-1
Number of rejected sample scans: 0
Number of rejected background scans: 0
Bench serial number: BER2010005;
##RESOLUTION= 4,000
##XUNITS=1/CM
##YUNITS=ABSORBANCE
##FIRSTX=400.156891
##LASTX=4000.123047
##FIRSTY=0.023023
##MAXX=4000.123047
##MINX=400.156891
##MAXY=0.232219
##MINY=-0.001804
##XFACTOR=1.000000
##YFACTOR=1.000000E-009
##NPOINTS=7468
##DELTAX=0.482117
##ZPD=6100
##XYDATA=(X++(Y..Y))
400.157 23023214 19188978 16381819 14660992 14025306 14382487 15545279 
403.532 17244418 19165638 21010256 22520958 23571564 24190242 24555360 
406.907 24912818 25500660 26476480 27875928 29624452 31561982 33497956 
410.281 35225972 36557736 37329724 37389812 36645580 35109420 32949664 
413.656 30462320 28014516 25918512 24328640 23233872 22469662 21775662 
417.031 20830950 19360782 17279652 14854567 12691928 11467299 11567093 
420.406 12941529 15281891 18192408 21297080 24189298 26455210 27739326 
423.781 27800680 26672858 24683738 22380798 20291674 18783710 17980866 
427.155 17782958 17970438 18325832 18745584 19271580 20058356 21261240 
430.530 22927322 24908746 26873628 28386012 29094030 28822722 27627448 
433.905 25737906 23491322 21232080 19219248 17613986 16454563 15702968 
437.280 15294520 15186043 15361556 15814427 16520195 17417142 18402186 
440.655 19363934 20196762 20838806 21283578 21577132 21791200 21995822 
444.030 22241310 22546120 22900112 23270610 23611444 23863238 23964976 
447.404 23872338 23568240 23074298 22445410 21761274 21107360 20562496 
450.779 20196416 20054468 20151710 20469750 20962126 21563622 22204516 
454.154 22826070 23370708 23782592 24000866 23956116 23593148 22903744 
457.529 21967730 20950444 20057938 19453328 19188876 19208754 19382192 
460.904 19563362 19623570 19499764 19217136 18884300 18645822 18623340 
464.278 18868346 19339754 19919126 20443630 20768104 20793444 20504344 
467.653 19958500 19265520 18540826 17879242 17362032 17056252 17028306 
471.028 17340132 18020064 19031956 20248242 21482218 22521202 23203078 
474.403 23454248 23270366 22690664 21765454 20548670 19101164 17511758 
477.778 15906565 14419170 13172762 12239197 11621712 11267271 11092759 
481.152 11025223 11026820 11112439 11331612 11738494 12347520 13116888 
484.527 13951395 14747468 15425958 15964137 16385708 16724242 16979894 
487.902 17100400 16986060 16538540 15716951 14577617 13268575 11994087 
491.277 10946383 10226472 9824257 9627287 9489160 9291800 9011135 8720372 
495.134 8566007 8700055 9227726 10169722 11450732 12920877 14396290 15717398 
498.991 16749173 17395552 17596250 17323204 16600674 15520176 14253214 
502.366 13007520 11981349 11315220 11051189 11146502 11496456 11976784 
505.740 12458530 12832101 13019093 12970000 12675040 12163647 11507276 
509.115 10803895 10166160 9703923 9490176 9550157 9844763 10285299 10748223 
512.972 11115193 11304066 11266998 10993074 10492718 9792570 8933741 7986994 
516.829 7063254 6299887 5849670 5836237 6307384 7214828 8414805 9714766 
520.686 10910434 11858917 12498870 12853432 13004583 13061842 13125699 
524.061 13255970 13466623 13728365 13989376 14192477 14295843 14277182 
527.436 14125279 13833434 13394002 12805210 12083134 11278390 10483892 
530.811 9814124 9391197 9300026 9557948 10107247 10829134 11577812 12206242 
534.667 12616093 12771666 12706189 12499211 12252762 12057344 11966464 
538.042 11995041 12120237 12299082 12477353 12607566 12653753 12591842 
541.417 12412433 12120510 11735975 11290156 10825296 10387028 10013145 
544.792 9734283 9566889 9514323 9569159 9719036 9948660 10242349 10582985 
548.649 10947572 11303249 11611299 11827012 11911870 11844718 11629200 
552.024 11297672 10907206 10537696 10270575 10171520 10272203 10552939 
555.398 10942067 11329810 11608201 11691927 11555762 11242618 10858621 
558.773 10537153 10393782 10499438 10853186 11390522 12004374 12591807 
562.148 13077378 13436582 13691740 13892240 14085986 14295193 14508544 
565.523 14686628 14780274 14749456 14582928 14305124 13975893 13670130 
568.898 13469733 13440580 13613611 13980684 14492511 15072722 15627466 
572.273 16073566 16355636 16457522 16406009 16263129 16111838 16028665 
575.647 16073016 16271178 16613342 17060424 17556746 18045312 18469600 
579.022 18784956 18960994 18988374 18883504 18690614 18472330 18287400 
582.397 18179762 18164456 18229380 18342802 18469116 18579764 18657408 
585.772 18695320 18688990 18632816 18521324 18357768 18165942 17992504 
589.147 17904448 17968780 18225924 18671902 19248686 19859256 20388966 
592.521 20752118 20912232 20886920 20728276 20498890 20247964 19997600 
595.896 19751992 19507666 19268810 19053384 18890112 18804746 18809764 
599.271 18892778 19018074 19134162 19193758 19162556 19029672 18805714 
602.646 18517624 18200250 17886804 17607604 17381826 17217492 17111222 
606.021 17050704 17019690 17000256 16977584 16937170 16863312 16738327 
609.396 16541259 16256524 15884431 15452257 15015952 14651533 14437461 
612.770 14421671 14603865 14927090 15297267 15602427 15754400 15720010 
616.145 15527937 15257318 15000826 14834716 14783942 14823847 14895268 
619.520 14941288 14928188 14859402 14765156 14684674 14641458 14629874 
622.895 14615310 14550069 14395297 14137260 13794715 13412421 13045521 
626.270 12733928 12494540 12317421 12179082 12057549 11948447 11869779 
629.644 11860109 11959583 12194042 12559507 13019298 13509552 13956321 
633.019 14302795 14521631 14629464 14675627 14730363 14853127 15067988 
636.394 15353832 15648555 15870821 15941966 15820647 15511693 15070218 
639.769 14578680 14133529 13816810 13677618 13731170 13959812 14324951 
643.144 14773247 15249939 15703451 16088214 16375694 16556473 16645188 
646.519 16673626 16685573 16721109 16801418 16923702 17062008 17178160 
649.893 17235868 17215458 17118288 16964044 16779478 16590105 16414130 
653.268 16259896 16134085 16045958 16011750 16054759 16197776 16454874 
656.643 16825356 17292686 17826524 18389328 18945764 19465142 19925856 
660.018 20316430 20635076 20887824 21086004 21244886 21380782 21509826 
663.393 21649290 21815762 22027332 22304054 22666784 23133180 23703604 
666.767 24341290 24923834 25242758 25107752 24517670 23691672 22892182 
670.142 22292300 21955670 21898970 22119088 22598018 23298228 24157068 
673.517 25097290 26033712 26898902 27655202 28293276 28827714 29285250 
676.892 29693986 30071218 30421556 30740592 31023528 31278338 31532266 
680.267 31827588 32213212 32722880 33361182 34099048 34884124 35656380 
683.642 36367244 36996752 37551736 38056608 38532376 38985324 39402788 
687.016 39764260 40056480 40287052 40484176 40686012 40918048 41181172 
690.391 41451780 41698160 41899540 42065312 42233224 42456992 42776588 
693.766 43197676 43681568 44158812 44555984 44820696 44944884 44963260 
697.141 44937608 44928092 44980456 45114908 45332000 45621368 45972400 
700.516 46376432 46822508 47293760 47766000 48211208 48610292 48959520 
703.890 49275144 49585128 49921652 50308764 50760164 51284180 51889472 
707.265 52590556 53404272 54339544 55385940 56507696 57653392 58766876 
710.640 59809828 60776500 61692628 62601044 63537524 64515972 65523588 
714.015 66533976 67526824 68507552 69511424 70592072 71794928 73139096 
717.390 74604000 76138880 77671280 79128672 80451544 81586296 82482168 
720.765 83085912 83343440 83220816 82719248 81886704 80803320 79567880 
724.139 78267896 76957664 75661232 74378024 73099616 71822136 70549616 
727.514 69286488 68027136 66753856 65439448 64062952 62623480 61146984 
730.889 59678920 58265136 56939068 55707140 54552544 53445752 52361396 
734.264 51287944 50228116 49189640 48174704 47171520 46157860 45109100 
737.639 44013288 42878432 41733468 40618408 39571744 38622724 37784524 
741.013 37056904 36429180 35885960 35406252 34961868 34520020 34041280 
744.388 33490654 32848976 32119226 31329226 30521854 29745610 29035644 
747.763 28409996 27868226 27398944 26988308 26626390 26308316 26028858 
751.138 25777038 25534256 25275698 24979704 24637164 24255442 23856832 
754.513 23470196 23122032 22827048 22588142 22399740 22255538 22151410 
757.888 22086456 22058846 22058324 22065504 22053826 21997844 21885798 
761.262 21725358 21544472 21379008 21263710 21216738 21233472 21288102 
764.637 21342566 21360420 21313508 21189806 20990294 20725702 20409560 
768.012 20057176 19683928 19304870 18936108 18593494 18289232 18031012 
771.387 17817962 17640764 17482506 17321548 17137484 16912746 16638715 
774.762 16317688 15964380 15601946 15261023 14970302 14749662 14606983 
778.136 14536364 14521666 14540441 14572648 14601911 14616441 14606812 
781.511 14560347 14460344 14289577 14035710 13700768 13305334 12891215 
784.886 12510057 12212479 12038131 12002875 12097171 12288447 12533076 
788.261 12782108 12991746 13130104 13176586 13125665 12986728 12786612 
791.636 12563600 12362111 12223691 12172199 12208048 12304945 12420240 
795.010 12505009 12524243 12469238 12360577 12240015 12154582 12143133 
798.385 12219465 12371350 12563873 12754708 12905449 12991132 13005027 
801.760 12955320 12860293 12740411 12616161 12502827 12411273 12348986 
805.135 12320966 12330306 12379157 12468215 12597162 12762487 12957539 
808.510 13169414 13380026 13568757 13715165 13806583 13841987 13834153 
811.885 13804565 13778605 13778434 13814417 13884884 13977297 14074520 
815.259 14158860 14217777 14244346 14235854 14191895 14113950 14006007 
818.634 13877016 13742558 13624928 13546366 13525480 13569305 13670848 
822.009 13810825 13965115 14115079 14251775 14379919 14512518 14663048 
825.384 14836293 15024115 15207283 15364989 15482987 15563858 15626848 
828.759 15705168 15831679 16025878 16284490 16579708 16865276 17088234 
832.133 17208150 17206014 17092370 16901446 16685333 16497444 16379377 
835.508 16356358 16431989 16591413 16804482 17036956 17255864 17435872 
838.883 17566372 17651012 17708266 17763284 17844200 17970540 18146700 
842.258 18359704 18583154 18784818 18935762 19021950 19047188 19032026 
845.633 19004090 18989066 19001284 19039156 19088042 19127756 19143752 
849.008 19133296 19110166 19100714 19137866 19247266 19440332 19706394 
852.382 20015606 20321152 20572016 20726920 20759310 20666730 20468706 
855.757 20204816 19921276 19661288 19457764 19325030 19262126 19255752 
859.132 19287722 19339926 19399654 19461296 19525304 19596290 19679524 
862.507 19778484 19892312 20015086 20135640 20240814 20318686 20363340 
865.882 20377680 20374832 20374800 20397474 20456864 20554228 20677780 
869.256 20806270 20919046 21003438 21060336 21103534 21152376 21221190 
872.631 21310200 21402468 21467772 21475012 21401354 21244572 21023576 
876.006 20775752 20541548 20356152 20239668 20193256 20201866 20240674 
879.381 20285146 20315630 20323338 20310458 20288064 20270112 20268794 
882.756 20290182 20330318 20377298 20414006 20425952 20404386 20351500 
886.131 20278168 20200684 20132446 20079524 20038890 20002076 19960962 
889.505 19913784 19868136 19837406 19835082 19865396 19918642 19971232 
892.880 19993748 19956626 19843058 19652932 19404160 19125228 18851528 
896.255 18617598 18450584 18368966 18379198 18475408 18637694 18835576 
899.630 19034864 19201306 19312110 19360920 19359882 19333828 19313876 
903.005 19327006 19386594 19491516 19627418 19774392 19910730 20020292 
906.379 20094030 20130122 20132446 20109682 20075152 20043158 20026918 
909.754 20032540 20055406 20077962 20074700 20022026 19907088 19737878 
913.129 19542704 19365494 19247924 19216512 19272794 19393314 19537262 
916.504 19661426 19737150 19756222 19732398 19691452 19661254 19659208 
919.879 19687430 19732676 19773456 19786252 19752198 19662086 19516086 
923.254 19323714 19099570 18863812 18636900 18436548 18277136 18166530 
926.628 18107592 18098540 18135782 18213622 18324794 18459470 18605322 
930.003 18748248 18876444 18984566 19077344 19168444 19278438 19424948 
933.378 19615078 19841152 20082474 20312262 20509416 20667946 20800150 
936.753 20932224 21090630 21291790 21531900 21787784 22022940 22205110 
940.128 22317414 22366458 22379122 22393846 22446596 22555822 22718174 
943.502 22908738 23092432 23231460 23301620 23299138 23243274 23170154 
946.877 23126400 23157188 23291762 23537212 23874790 24265952 24658592 
950.252 25002482 25264704 25433974 25525680 25574386 25625736 25718042 
953.627 25875180 26099400 26372182 26659260 26920476 27123438 27248664 
957.002 27297174 27289166 27261788 27257094 27311148 27445074 27656510 
960.377 27921472 28200312 28454286 28652692 28784378 28856750 28891524 
963.751 28912172 28935262 28967280 29005464 29044784 29083400 29125032 
967.126 29175668 29237296 29302974 29356110 29376674 29351930 29283266 
970.501 29188708 29095660 29030580 29004898 29009856 29018216 28999266 
973.876 28929736 28806258 28645826 28480004 28340314 28246208 28201054 
977.251 28193808 28208022 28230262 28256108 28289562 28337662 28404406 
980.625 28487682 28580140 28674956 28769402 28866984 28974470 29096688 
984.000 29230668 29364796 29480812 29562132 29599978 29597530 29567558 
987.375 29529502 29501486 29495030 29514254 29556350 29614130 29677490 
990.750 29736172 29779320 29797348 29784538 29741850 29679546 29614094 
994.125 29565644 29549612 29570466 29619452 29677240 29721980 29735428 
997.500 29712188 29659714 29596466 29543936 29521488 29542872 29613528 
1000.874 29733690 29898428 30100336 30327104 30563056 30789674 30988120 
1004.249 31144970 31255302 31323776 31361636 31382184 31395864 31407758 
1007.624 31419690 31433332 31454138 31491720 31556598 31653848 31779460 
1010.999 31919834 32055188 32167822 32251428 32314032 32377462 32466828 
1014.374 32603066 32792624 33025056 33274676 33510480 33705412 33842936 
1017.748 33923072 33960548 33983584 34024148 34114532 34277608 34519948 
1021.123 34828116 35170136 35503860 35784308 35979648 36080628 36102736 
1024.498 36078972 36050100 36049416 36092584 36176808 36285256 36398628 
1027.873 36501432 36589128 36665228 36737052 36808884 36879396 36940652 
1031.249 36982212 36993288 36965292 36893176 36776068 36618580 36433328 
1034.624 36243328 36077680 35963632 35917452 35933180 35980872 36010964 
1037.999 35974968 35838676 35600884 35292672 34971960 34699792 34518836 
1041.374 34443684 34457816 34525544 34606556 34673808 34717556 34743652 
1044.750 34763824 34788092 34821296 34866172 34930592 35031364 35191616 
1048.125 35434508 35769988 36187612 36653764 37124172 37554192 37913980 
1051.500 38196784 38416056 38596396 38761200 38926680 39099368 39279740 
1054.875 39469224 39673164 39900808 40162084 40461264 40796136 41157168 
1058.251 41533556 41916288 42301920 42690416 43083136 43479436 43875036 
1061.626 44263840 44639588 44998424 45336820 45651108 45935088 46181368 
1065.001 46384728 46547460 46681848 46807712 46946900 47114420 47312304 
1068.376 47529168 47747472 47952340 48141760 48328780 48539408 48802668 
1071.752 49139696 49559500 50057860 50623468 51245328 51918676 52645724 
1075.127 53431584 54279240 55184008 56134096 57114688 58111396 59112832 
1078.502 60112164 61102396 62076548 63028560 63957208 64870500 65786168 
1081.877 66727968 67712544 68742568 69800400 70855864 71874520 72835352 
1085.253 73739288 74609504 75479536 76377112 77314544 78283408 79262032 
1088.628 80227368 81166256 82078144 82970304 83847408 84704520 85525792 
1092.003 86291712 86986872 87607696 88158656 88645704 89065360 89399888 
1095.378 89621312 89705304 89641592 89443160 89140744 88774864 88379976 
1098.754 87974416 87560560 87128336 86664032 86155400 85595024 84980168 
1102.129 84311784 83596664 82850952 82101728 81382192 80727184 80160168 
1105.504 79689032 79308088 79007832 78788448 78669688 78688120 78886664 
1108.879 79295840 79914408 80704832 81599448 82525920 83424096 84268496 
1112.255 85068424 85856064 86662616 87499552 88350744 89180248 89944488 
1115.630 90609528 91160264 91595856 91920064 92130976 92217048 92162800 
1119.005 91957280 91601552 91108112 90494424 89773944 88951072 88024040 
1122.380 86995568 85880816 84713376 83541072 82411664 81368408 80440728 
1125.755 79647080 79006360 78541640 78285744 78276616 78543584 79101240 
1129.131 79942848 81045760 82379576 83922016 85665120 87614224 89777576 
1132.506 92152520 94713824 97416512 100203320 103019168 105829504 108620920 
1135.881 111395272 114155784 116894752 119589304 122208568 124721872 
1138.774 127109392 129360792 131466760 133409960 135161520 136688000 
1141.667 137970112 139016480 139870592 140594848 141257312 141903392 
1144.560 142546864 143176096 143769968 144317760 144829680 145333392 
1147.453 145861520 146435040 147054032 147700672 148352096 148994896 
1150.347 149630832 150273648 150936608 151620816 152311392 152983536 
1153.240 153616080 154204256 154763344 155319984 155896416 156498880 
1156.133 157111280 157703216 158239088 158692096 159048000 159297872 
1159.026 159431920 159433840 159284624 158975296 158518080 157950464 
1161.919 157322512 156683616 156058976 155442384 154799408 154085312 
1164.812 153264736 152321024 151259424 150095632 148845168 147514960 
1167.705 146108400 144633792 143110304 141568928 140041664 138546192 
1170.598 137079968 135620768 134140552 132620336 131063400 129492384 
1173.491 127936424 126411048 124907376 123392896 121829328 120190568 
1176.384 118481096 116735968 115009864 113351464 111787744 110317104 
1179.277 108918224 107565824 106247024 104967952 103747200 102600672 
1182.170 101527896 100506400 99500024 98473520 97405608 96297712 95170648 
1185.546 94053824 92969832 91929400 90928456 89956224 89000648 88055408 
1188.921 87118816 86191568 85271240 84353304 83432568 82507448 81582256 
1192.296 80665696 79765592 78884600 78018552 77159184 76301184 75447088 
1195.671 74609504 73806912 73055072 72359208 71711168 71093712 70487960 
1199.047 69882464 69278560 68688688 68130160 67615856 67150440 66728936 
1202.422 66342540 65981568 65640732 65317424 65008864 64708868 64408616 
1205.797 64099432 63779608 63457868 63153044 62885916 62672964 62517816 
1209.172 62411528 62335832 62274332 62218728 62171624 62142608 62140312 
1212.547 62164284 62203896 62241252 62260908 62257660 62239988 62225840 
1215.923 62233032 62272344 62342372 62432416 62529676 62628908 62734900 
1219.298 62861988 63024036 63230076 63477428 63755780 64051508 64356200 
1222.673 64669220 64994892 65336876 65690920 66042468 66372656 66663796 
1226.048 66909292 67116288 67303648 67491832 67695504 67918960 68157608 
1229.424 68403320 68650696 68899760 69152464 69406600 69651472 69866624 
1232.799 70028048 70119976 70141784 70111568 70058424 70014584 69999824 
1236.174 70016872 70050624 70076872 70069632 70009864 69887768 69700208 
1239.549 69447384 69130824 68754248 68326536 67861736 67379336 66896148 
1242.925 66420876 65948860 65464064 64943328 64365924 63722052 63015916 
1246.300 62263852 61487588 60711568 59955640 59235628 58563780 57948744 
1249.675 57394656 56899480 56454752 56045272 55653804 55266972 54879928 
1253.050 54497732 54133968 53805044 53523140 53292552 53108624 52961532 
1256.426 52840008 52734980 52640488 52550468 52456200 52345324 52201888 
1259.801 52012260 51770972 51483076 51162716 50828880 50499400 50185676 
1263.176 49892916 49621600 49370280 49136764 48918132 48709396 48502392 
1266.551 48287376 48056332 47805948 47539852 47267896 47003496 46757780 
1269.927 46537428 46343916 46174664 46027360 45901980 45800900 45727376 
1273.302 45681916 45660748 45654384 45651732 45640948 45613164 45563332 
1276.677 45487936 45383900 45247488 45075684 44867832 44628316 44365516 
1280.052 44089344 43806052 43513828 43203568 42860584 42472192 42033844 
1283.428 41552512 41045348 40532444 40032280 39555596 39104948 38677996 
1286.803 38273020 37891712 37541620 37232384 36972508 36765936 36611764 
1290.178 36504464 36437216 36403816 36397980 36413040 36439560 36464712 
1293.553 36475884 36462984 36422624 36358816 36282012 36204572 36135252 
1296.929 36076308 36024860 35975328 35924436 35874444 35831980 35804996 
1300.304 35797188 35803736 35810284 35798336 35749012 35651164 35505196 
1303.679 35322784 35123068 34925560 34746772 34594936 34470192 34366572 
1307.054 34276208 34192712 34112772 34037696 33971760 33920564 33887716 
1310.430 33874352 33876968 33888360 33899248 33900644 33886996 33857336 
1313.805 33815928 33770624 33730552 33702116 33688440 33688832 33698680 
1317.180 33710820 33715764 33703908 33664380 33588692 33471182 33310880 
1320.555 33111978 32883286 32635498 32377858 32116764 31854402 31590060 
1323.931 31321854 31049864 30776408 30506322 30244752 29995518 29761010 
1327.306 29542342 29340442 29158338 28999300 28867054 28762284 28682884 
1330.681 28623210 28577664 28543730 28524620 28528194 28565562 28646712 
1334.056 28775456 28948932 29157490 29389578 29634634 29887460 30149310 
1337.432 30425430 30720642 31035094 31360496 31682432 31984102 32253142 
1340.807 32485108 32683012 32854088 33005714 33144594 33276822 33409060 
1344.182 33549712 33706988 33885672 34085000 34297400 34509976 34708368 
1347.557 34883048 35031504 35158492 35272616 35381448 35487140 35585456 
1350.932 35667964 35728076 35763724 35780492 35788012 35797580 35817804 
1354.308 35851416 35897188 35951176 36009668 36070080 36129852 36185304 
1357.683 36230612 36259320 36267388 36255608 36232488 36212424 36212676 
1361.058 36246064 36317816 36420716 36539172 36653512 36749816 36822952 
1364.433 36874744 36909700 36931056 36939316 36934624 36918936 36897940 
1367.809 36879724 36872872 36882432 36908404 36948372 37001880 37074660 
1371.184 37182284 37345572 37589236 37933328 38385104 38932732 39544268 
1374.559 40177348 40788640 41343752 41816936 42179292 42395320 42422208 
1377.934 42216280 41754808 41044436 40126176 39057892 37901688 36706008 
1381.310 35501996 34314720 33168300 32087974 31097236 30205358 29403264 
1384.685 28662886 27947726 27221780 26465036 25682678 24902746 24162638 
1388.060 23491322 22898748 22380378 21927964 21537228 21209222 20947244 
1391.435 20750934 20612004 20514280 20437206 20363860 20286014 20208946 
1394.811 20147684 20119050 20131372 20183018 20265982 20372506 20497292 
1398.186 20636498 20784474 20931738 21065030 21173072 21249026 21292558 
1401.561 21306024 21291132 21245442 21161454 21028514 20839640 20597446 
1404.936 20320144 20035732 19776820 19569564 19428482 19359604 19365146 
1408.312 19447678 19613518 19869904 20221790 20665376 21187304 21765490 
1411.687 22375390 22998234 23623130 24245702 24864220 25473324 26062774 
1415.062 26618358 27123544 27564178 27927936 28199994 28359942 28382474 
1418.437 28248296 27964014 27575616 27152536 26754360 26413940 26134202 
1421.813 25899728 25689956 25488890 25292554 25114248 24978372 24911028 
1425.188 24927800 25029544 25209184 25460782 25786250 26196598 26706930 
1428.563 27327132 28051662 28856928 29704594 30553102 31371820 32143988 
1431.938 32866738 33546380 34192564 34816268 35429652 36046968 36684988 
1435.314 37360016 38078744 38824060 39554684 40222456 40797484 41280016 
1438.689 41690980 42059212 42412564 42772308 43150648 43549536 43960928 
1442.064 44371388 44766332 45137444 45484184 45814228 46139252 46473736 
1445.439 46831252 47224676 47665928 48164784 48726300 49349640 50029048 
1448.815 50760576 51551460 52419488 53393220 54500512 55755692 57145828 
1452.190 58629308 60149116 61644204 63076720 64436784 65731660 66972412 
1455.565 68146864 69196640 70016680 70515936 70702320 70683296 70598536 
1458.940 70535704 70524160 70563728 70644576 70758392 70899312 71061200 
1462.316 71232432 71391120 71506616 71535688 71427200 71130976 70591952 
1465.691 69753472 68561832 66964104 64935984 62491912 59693520 56622964 
1469.066 53371372 50005440 46527288 42896532 39056080 35006832 30895644 
1472.441 27027200 23734576 21185320 19324026 17954760 16861110 15896220 
1475.817 14987587 14126135 13332770 12628817 12016159 11477846 10989335 
1479.192 10531280 10095581 9685966 9312111 8982313 8697757 8451832 8234513 
1483.049 8037081 7855089 7686023 7526564 7370601 7209673 7037154 6852922 
1486.907 6665303 6489266 6340063 6223950 6134080 6051251 5955740 5841409 
1490.764 5719353 5609885 5529470 5484907 5472391 5482994 5506047 5533565 
1494.621 5559674 5579912 5589477 5580315 5541921 5467257 5358087 5226743 
1498.479 5092824 4977447 4894536 4847458 4830102 4830303 4835162 4835798 
1502.336 4829064 4816299 4801457 4787553 4774722 4759012 4730404 4673798 
1506.194 4576346 4440518 4291180 4158452 4055597 3979784 3923142 3879646 
1510.051 3846182 3820376 3799251 3778494 3753594 3720341 3677767 3626143 
1513.909 3567375 3503038 3434535 3364841 3299631 3249921 3227789 3241042 
1517.766 3288480 3360667 3443919 3523480 3587654 3629050 3648262 3655680 
1521.623 3668311 3697550 3741429 3788622 3826426 3846617 3845480 3824287 
1525.481 3787051 3739056 3683682 3622401 3555783 3485268 3415499 3352820 
1529.338 3301835 3264510 3236769 3210164 3172647 3112372 3021809 2903778 
1533.196 2774909 2661379 2584309 2548779 2547279 2569177 2609142 2667046 
1537.053 2746665 2852680 2982640 3121483 3234132 3273724 3211099 3066654 
1540.911 2901577 2773208 2710121 2711788 2763938 2849711 2953382 3062016 
1544.768 3162934 3246650 3306375 3340565 3350349 3339163 3310015 3265478 
1548.625 3207894 3141207 3070826 3004059 2947644 2906113 2881163 2872258 
1552.483 2877494 2893071 2913819 2933800 2947511 2951214 2942140 2916587 
1556.340 2867021 2780077 2638510 2431043 2183479 1979824 1915289 1991707 
1560.198 2131433 2262210 2353048 2401623 2417282 2415416 2413750 2429544 
1564.055 2474495 2551078 2650578 2758936 2862752 2955717 3039460 3118913 
1567.912 3197280 3271187 3327911 3350883 3330983 3274525 3200484 3129359 
1571.770 3075731 3044498 3035022 3041762 3057178 3071526 3074129 3054975 
1575.627 3007829 2935535 2851279 2772374 2710455 2668347 2642810 2627042 
1579.485 2613675 2595475 2568110 2530581 2487224 2445104 2412984 2397258 
1583.342 2400223 2420048 2452302 2491856 2535114 2579942 2625309 2669113 
1587.200 2707087 2732561 2738863 2723258 2688450 2643977 2602642 2577943 
1591.057 2577709 2603275 2648544 2703620 2756669 2798985 2826132 2838572 
1594.914 2839305 2832969 2823564 2814126 2806122 2800653 2797985 2798518 
1598.772 2801820 2807623 2815260 2824431 2834369 2843875 2851345 2854180 
1602.629 2849911 2837404 2817527 2794050 2771541 2754635 2746065 2745498 
1606.487 2750000 2756302 2761170 2764405 2767739 2773808 2783812 2796318 
1610.344 2807156 2811358 2806155 2791616 2771541 2750700 2733194 2720157 
1614.202 2709654 2697018 2678215 2652544 2626509 2612342 2621809 2658178 
1618.059 2715856 2784412 2854581 2920924 2980605 3031852 3072995 3100792 
1621.916 3111338 3102761 3078434 3048435 3026447 3022676 3039593 3072261 
1625.774 3110970 3145579 3167941 3175484 3171879 3167206 3171779 3193341 
1629.631 3234599 3294022 3368981 3457646 3559892 3675562 3803964 3940595 
1633.489 4074762 4189197 4260362 4266887 4204519 4097940 3990652 3914282 
1637.346 3878208 3874431 3890778 3918160 3953268 3996471 4049410 4112390 
1641.203 4182673 4255276 4325548 4391380 4454611 4521166 4599752 4699655 
1645.061 4828226 4986161 5164071 5341985 5496115 5611697 5689004 5738155 
1648.918 5769313 5788687 5799936 5804671 5806619 5814678 5844834 5920806 
1652.776 6055081 6221497 6361413 6439358 6461318 6450523 6426444 6402469 
1656.633 6386463 6382125 6390498 6409295 6434213 6458392 6474300 6474233 
1660.491 6449816 6394331 6302476 6174644 6019165 5852592 5695517 5563601 
1664.348 5464976 5398947 5360200 5340946 5332929 5327897 5316895 5292913 
1668.205 5252533 5199011 5142913 5099529 5080186 5087025 5113778 5151296 
1672.063 5192539 5234960 5281174 5337122 5409918 5502826 5610623 5718950 
1675.920 5810648 5875363 5913215 5931622 5941430 5952851 5974048 6011606 
1679.778 6068387 6143624 6234471 6338920 6457148 6593204 6752456 6935568 
1683.635 7128693 7300643 7420886 7483952 7507078 7511494 7510618 7512202 
1687.493 7521945 7545747 7591265 7666631 7777261 7922639 8096591 8287701 
1691.350 8482747 8670950 8846014 9005722 9153136 9295355 9443681 9611569 
1695.207 9810227 10040578 10288862 10536033 10770811 10995248 11223203 
1698.583 11477063 11782104 12153560 12573287 12984509 13326278 13574603 
1701.958 13742455 13856422 13939693 14012132 14090914 14191278 14326116 
1705.333 14499603 14705376 14929834 15160275 15390906 15623206 15862092 
1708.708 16111527 16371256 16637338 16903100 17163888 17419142 17674030 
1712.084 17936594 18215316 18515480 18837202 19177308 19532756 19907608 
1715.459 20320006 20803036 21395332 22127142 22991318 23933954 24879552 
1718.834 25772010 26601378 27395910 28197696 29049886 29988702 31042354 
1722.209 32229912 33561632 35041960 36669880 38441324 40350240 42388128 
1725.585 44545664 46818928 49219920 51788408 54593908 57724384 61254640 
1728.960 65202372 69495328 73984448 78488992 82909504 87306232 91958264 
1732.335 97352240 104130296 112821104 123318416 134574768 145094240 
1735.228 153954832 161195808 167385648 173130704 178880736 184897888 
1738.121 191274944 197931760 204660704 211153424 217092816 222226368 
1741.014 226378704 229440848 231372880 232219312 232125136 231295792 
1743.907 229929024 228110384 225789760 222820064 219060048 214457808 
1746.800 209101456 203169840 196873056 190327792 183509776 176275168 
1749.693 168492752 160178480 151556784 143022176 134975440 127666264 
1752.587 121127736 115229192 109762024 104510952 99295120 93978656 88484528 
1755.962 82830344 77140304 71622224 66495628 61898644 57857312 54299668 
1759.337 51097000 48101784 45178840 42244436 39292184 36408788 33733916 
1762.712 31391196 29429536 27816928 26465880 25276048 24157978 23050118 
1766.088 21924828 20789446 19679004 18640046 17713442 16916708 16242696 
1769.463 15666520 15159486 14694134 14243421 13783120 13292933 12767981 
1772.838 12227815 11706972 11240169 10848906 10539699 10304198 10123459 
1776.213 9972527 9828291 9674650 9505348 9322572 9131717 8937225 8739845 
1780.071 8540223 8340794 8148749 7974709 7826850 7708181 7613148 7529868 
1783.928 7443974 7343910 7226788 7099088 6971829 6854639 6750033 6654132 
1787.786 6560069 6462663 6361648 6262841 6175652 6108037 6061297 6026053 
1791.643 5985704 5922485 5829454 5714519 5593572 5481853 5386467 5307772 
1795.500 5240896 5179897 5120450 5061345 5002886 4944737 4883813 4814021 
1799.358 4728026 4622021 4498634 4368252 4245773 4146242 4078508 4044560 
1803.215 4039510 4054694 4080080 4105667 4123696 4128078 4114598 4081451 
1807.073 4028842 3958484 3872625 3773080 3660525 3535372 3400237 3261472 
1810.930 3130660 3022676 2949646 2917822 2924093 2957752 3003625 3047234 
1814.787 3078267 3091915 3089780 3078033 3065086 3057979 3061549 3077733 
1818.645 3105831 3142275 3180357 3210465 3220045 3197580 3136034 3036257 
1822.502 2908415 2771807 2651644 2569210 2536514 2549079 2588409 2629876 
1826.360 2654245 2654578 2634743 2604142 2572676 2546046 2522549 2494622 
1830.217 2453168 2393993 2319968 2238663 2157905 2084819 2024895 1981356 
1834.075 1957457 1954162 1971004 2004390 2048298 2094208 2133197 2157239 
1837.932 2159636 2136194 2084453 2003125 1892659 1756337 1602531 1445124 
1841.789 1304423 1204832 1166491 1196393 1279033 1380468 1457657 1482758 
1845.647 1452703 1385653 1308344 1244639 1209650 1205863 1226363 1258230 
1849.504 1290797 1319278 1345933 1377676 1421820 1480796 1550987 1622552 
1853.362 1682953 1721540 1732218 1715652 1678263 1630934 1585105 1551918 
1857.219 1537852 1541942 1555775 1564421 1551951 1505732 1422285 1310072 
1861.077 1189050 1082046 1010304 985263 1006551 1063412 1139116 1217027 
1864.934 1281957 1324230 1338123 1319810 1267335 1181342 1069856 950395 
1868.791 849359 792427 793755 851318 950495 1070985 1191742 1298374 1383293 
1873.131 1444791 1486116 1510421 1518534 1507661 1473316 1411847 1324862 
1876.988 1220383 1112839 1019404 958730 944850 984931 1077097 1210149 
1880.846 1364280 1515608 1641976 1726962 1763456 1755306 1715951 1663029 
1884.703 1610846 1566915 1529074 1488543 1435716 1366541 1284782 1203071 
1888.561 1135728 1092377 1070487 1054876 1022592 954745 843616 696273 531662 
1892.900 375604 256698 196628 208529 290715 428667 596656 767432 918950 
1897.240 1036475 1115497 1159946 1180013 1188020 1195430 1209119 1230019 
1901.097 1254774 1278501 1299172 1319677 1347230 1389276 1450376 1526780 
1904.955 1607886 1676733 1716350 1713789 1663561 1567879 1435716 1279265 
1908.812 1112208 950993 813672 717580 677589 700454 782269 910084 1065936 
1913.152 1231514 1394263 1550787 1704641 1861744 2022132 2173622 2290955 
1917.009 2342654 2302946 2169793 1970438 1753908 1565951 1435483 1365045 
1920.867 1337225 1321505 1288903 1225566 1137954 1051322 996422 994861 
1924.724 1048499 1139415 1235235 1303093 1317916 1271090 1172704 1046971 
1928.581 922204 821274 755483 721197 705764 693585 676759 658375 653463 
1932.921 680011 752097 868980 1014821 1161641 1282323 1360790 1397753 
1936.778 1409587 1416833 1434519 1458821 1468362 1431726 1325759 1148518 
1940.636 931235 729428 611820 625623 773241 1005190 1245237 1420523 1489840 
1944.975 1457790 1366607 1275311 1230351 1251617 1323532 1407925 1459386 
1948.833 1447285 1369865 1250886 1128751 1042055 1018175 1065704 1176591 
1952.690 1329315 1497553 1648661 1749750 1769179 1680325 1468828 1141475 
1956.548 728665 276525 -159213 -525254 -783740 -909603 -892773 -735978 
1960.405 -456347 -85046 333456 741011 1075270 1281990 1325061 1200114 937810 
1964.745 596922 243039 -66925 -297276 -441353 -513274 -537929 -535711 
1968.602 -519826 -489842 -439069 -355879 -228167 -44529 202993 513284 870972 
1972.942 1246600 1600270 1888798 2082855 2178650 2203227 2204493 2228105 
1976.799 2291721 2368239 2389462 2270937 1955227 1434220 761391 29921 
1980.657 -652912 -1205035 -1581850 -1774904 -1803909 -1701013 -1497558 
1984.032 -1215311 -869163 -476967 -64407 328051 653032 870939 962483 939005 
1988.371 836445 704437 585608 505886 470459 467872 479482 492982 510829 
1992.711 549643 633985 783132 1001404 1274879 1570141 1841080 2044203 
1996.568 2143886 2122975 1987447 1764521 1497221 1229354 1000308 833059 
2000.426 735236 700952 716385 762553 816626 858389 869412 839034 768926 
2004.766 675332 589257 544037 567260 663850 813340 974603 1106129 1183768 
2009.105 1214236 1231381 1285779 1421221 1650823 1954961 2286458 2591042 
2012.963 2823464 2964157 3016037 2995751 2914052 2766672 2538014 2214617 
2016.820 1804013 1345933 899891 529506 272380 130998 79330 87847 144322 
2021.160 268767 501773 884319 1418662 2055755 2685849 3171045 3396096 
2025.017 3303638 2928429 2384331 1831497 1414340 1221811 1269595 1502241 
2028.874 1818719 2102831 2269538 2273201 2117282 1846903 1540213 1288271 
2032.732 1174133 1252548 1524319 1931064 2361543 2689850 2804188 2651611 
2036.589 2256648 1719444 1179947 763416 557506 582124 797074 1124134 1482126 
2040.929 1808671 2072334 2268272 2399190 2462998 2450036 2351515 2174988 
2044.786 1949735 1725199 1551153 1456626 1437710 1456194 1454731 1378440 
2048.644 1203603 942559 638564 343537 102197 -62221 -148050 -166632 -130793 
2052.983 -47478 83174 264622 494376 756611 1024652 1264079 1443295 1545467 
2057.323 1569941 1532931 1461115 1387515 1341812 1347496 1419260 1559234 
2061.180 1759198 1998831 2251785 2485825 2670613 2785113 2820362 2781111 
2065.038 2680482 2536780 2365641 2178218 1983386 1790006 1610047 1460017 
2068.895 1357699 1317351 1345003 1433455 1562260 1702778 1824576 1899581 
2072.752 1910197 1849099 1720043 1537553 1324662 1111743 929110 805871 
2076.610 761955 803381 919481 1084670 1264577 1423249 1536256 1595082 
2080.467 1609648 1601700 1599272 1625246 1689639 1787477 1900379 2004090 
2084.325 2073034 2089181 2043338 1936422 1776564 1578222 1359262 1138452 
2088.182 936249 773539 667401 630501 665675 765640 912043 1082544 1254110 
2092.522 1406861 1528442 1612143 1655113 1656710 1615535 1533297 1413077 
2096.379 1265906 1109551 966335 860448 809755 822071 894412 1015917 1169548 
2100.719 1337458 1503372 1651820 1766783 1835057 1844274 1790338 1679760 
2104.576 1532698 1377476 1245835 1160345 1127854 1136259 1160245 1172339 
2108.434 1152637 1097027 1018574 940898 886278 867519 883655 922071 966301 
2112.773 1003529 1031659 1057732 1093539 1147189 1217591 1292924 1354176 
2116.631 1381299 1361721 1294419 1191775 1073809 964143 884319 847201 856132 
2120.970 903776 974603 1047635 1102110 1123204 1105531 1056537 994961 945979 
2125.310 931401 961619 1030397 1116228 1186226 1207956 1162870 1049960 
2129.167 889997 717015 572104 486613 478155 543804 665509 813141 954945 
2133.507 1068527 1143634 1186093 1214169 1251717 1317583 1416002 1531302 
2137.364 1630335 1667752 1600370 1402672 1075901 653828 189568 -250288 
2141.222 -608874 -848528 -951758 -919026 -760522 -491232 -128806 301922 
2145.079 762188 1201610 1557904 1773969 1816756 1688475 1433854 1124366 
2148.937 845077 665609 628211 742671 991673 1338090 1736077 2142954 2515118 
2153.276 2813325 3006328 3072160 3010899 2843374 2609609 2350183 2092477 
2157.134 1838185 1568079 1258463 906664 546458 243835 64649 42281 156652 
2161.473 339226 498986 556577 480344 298474 85129 -78156 -133045 -75539 
2165.813 46555 150554 159636 38437 -194254 -475279 -722846 -863740 -865988 
2170.152 -739815 -531641 -297574 -86703 74591 182109 242708 265319 251228 
2174.492 199114 112736 8548 -79514 -107009 -31840 172728 505654 935220 
2178.832 1406927 1860446 2234166 2485192 2591275 2555778 2403222 2176619 
2182.689 1927303 1699784 1526647 1420523 1374817 1368601 1375914 1378241 
2186.546 1368867 1356170 1356071 1385254 1448548 1537453 1629670 1700317 
2190.404 1731719 1722005 1686745 1656011 1662464 1728858 1862509 2050295 
2194.261 2262776 2462498 2614708 2692084 2682116 2587942 2427211 2229970 
2198.119 2028224 1856220 1740368 1694163 1718579 1800253 1914756 2031287 
2201.976 2122909 2168660 2159237 2097271 1994470 1867767 1734247 1607952 
2205.833 1497786 1407293 1336394 1282489 1244008 1217160 1198287 1179581 
2209.691 1150412 1098190 1013360 893217 748181 604321 497494 463593 528610 
2214.031 693950 934290 1197191 1423050 1557837 1574763 1483257 1327055 
2217.888 1168451 1062715 1044380 1112175 1231148 1347063 1409221 1385753 
2221.745 1274746 1099020 898430 713464 571241 483130 444753 443692 463925 
2226.085 493314 520184 533022 521776 478520 404987 315152 238498 212640 
2230.425 270656 429662 678850 979684 1270027 1485883 1577024 1520130 1326989 
2234.764 1040361 722956 436329 232530 140212 163050 283189 467043 675697 
2239.104 868150 1012729 1089287 1092045 1029501 921706 796145 679480 595329 
2243.443 558136 570976 628775 719206 827349 936980 1034582 1110414 1159780 
2247.783 1184366 1191044 1191575 1198121 1221446 1266571 1331609 1407127 
2251.640 1481096 1541078 1577157 1585837 1567281 1525649 1466800 1397121 
2255.498 1323632 1254974 1200679 1170146 1169614 1199516 1253212 1319012 
2259.355 1382296 1432624 1465636 1483323 1490471 1490106 1478403 1445489 
2263.213 1379105 1272652 1132937 984301 862108 804643 839333 969988 1174232 
2267.552 1407825 1620923 1768979 1827337 1795728 1694362 1553215 1399980 
2271.410 1254442 1123935 1008610 907494 823664 765673 744264 766370 830801 
2275.749 926321 1035313 1137223 1217891 1271556 1301731 1317583 1328484 
2279.607 1340615 1354342 1365278 1367538 1357666 1335298 1305054 1273217 
2283.464 1246334 1229454 1225633 1235701 1258629 1292093 1331874 1372158 
2287.322 1405565 1424679 1424380 1403603 1367571 1325726 1290730 1273583 
2291.179 1280894 1312166 1360458 1414307 1461081 1491402 1500978 1492001 
2295.036 1471354 1449745 1438674 1446985 1481029 1541743 1624348 1718512 
2298.894 1810534 1884439 1926671 1929067 1891361 1821248 1731320 1636820 
2302.751 1549191 1473947 1409819 1351717 1293821 1233773 1175063 1125994 
2306.609 1096529 1093739 1117855 1162338 1215731 1265906 1305519 1335165 
2310.466 1361655 1394994 1443594 1509523 1586668 1663428 1726031 1765186 
2314.323 1777596 1767316 1742331 1712425 1684084 1660635 1641277 1624515 
2318.181 1609150 1595681 1584773 1575628 1563823 1540945 1496456 1421787 
2322.038 1315888 1186592 1050491 928679 841425 800759 808726 857626 933062 
2326.378 1017146 1094137 1153235 1189515 1204401 1203038 1192705 1179914 
2330.235 1169481 1165694 1171907 1191908 1229155 1285712 1360259 1447251 
2334.093 1538318 1622153 1689074 1733582 1755738 1761194 1758000 1752910 
2337.950 1747255 1735977 1707735 1650324 1554345 1417831 1247530 1059028 
2341.808 871039 702711 569383 480974 442266 454007 512056 607871 727702 
2346.147 855169 974338 1073144 1145694 1190745 1211212 1211843 1198918 
2350.005 1177821 1153601 1130745 1112374 1101213 1099253 1106793 1123071 
2353.862 1145063 1169249 1192041 1213405 1237595 1273682 1331010 1414374 
2357.719 1517769 1625546 1710928 1748486 1723236 1638217 1516239 1393199 
2361.577 1308244 1289534 1345302 1461347 1605292 1734547 1808072 1799322 
2365.434 1698354 1514677 1272121 1005953 751566 539458 390527 313030 303912 
2369.774 352556 445549 570744 718708 882626 1056072 1230118 1392235 1527012 
2374.114 1620258 1661898 1649858 1590925 1499482 1393697 1290066 1201045 
2377.971 1132937 1085501 1054677 1034482 1019404 1005023 989880 974404 
2381.828 962018 957236 965604 991540 1036641 1097791 1166990 1233242 1283652 
2386.168 1308344 1303558 1271921 1222675 1167521 1117756 1079489 1053846 
2390.025 1037206 1024519 1012430 1001138 994164 996887 1012895 1042919 
2393.883 1083840 1130545 1177987 1223107 1264976 1304123 1339585 1368302 
2397.740 1384224 1380900 1354376 1306416 1244938 1183369 1137389 1119383 
2401.598 1135229 1182206 1250421 1323765 1384822 1419327 1417133 1375814 
2405.455 1299570 1200314 1094503 1001071 938574 919680 948303 1017445 
2409.313 1111045 1205829 1278667 1313595 1304954 1259892 1194765 1130977 
2413.170 1086065 1069490 1079555 1105631 1132140 1144764 1136492 1108986 
2417.027 1071882 1038800 1022891 1031360 1064176 1113138 1165827 1208155 
2420.885 1227759 1217060 1174000 1101678 1007149 901020 795779 703906 637735 
2425.224 605880 612350 655123 726441 814269 904838 987157 1053547 1101844 
2429.564 1133801 1153103 1163102 1164897 1157222 1138319 1107092 1064641 
2433.421 1014788 962815 913106 868316 827946 789506 751068 712269 676062 
2437.761 647889 634383 639858 665642 707922 759831 813340 861178 900057 
2442.101 930704 957634 986891 1024419 1073676 1134665 1204002 1275111 
2445.958 1340748 1393864 1429266 1444924 1441400 1421188 1387349 1342510 
2449.815 1288271 1225799 1156624 1083840 1013559 953185 910682 892619 901518 
2454.155 935552 988817 1053215 1119417 1178950 1224370 1248793 1246566 
2458.012 1212973 1146624 1050890 935320 815033 707092 627116 584380 578706 
2462.352 600970 637170 674270 703607 724981 744662 771847 812610 867486 
2466.692 928645 984433 1022559 1036376 1026578 1002599 977625 964043 969755 
2471.031 994297 1030331 1065272 1087162 1087494 1064575 1023356 975068 
2474.889 933460 910649 914998 947539 1002367 1066700 1126227 1167687 1183402 
2479.228 1173900 1147123 1116726 1095831 1094337 1114567 1151242 1192738 
2483.086 1225898 1240187 1229587 1194632 1141110 1078060 1014588 958166 
2486.943 913936 883788 867121 861543 863735 869578 876185 881663 885979 
2491.283 890495 897998 910416 928944 953085 981046 1010470 1039498 1066269 
2495.622 1089553 1107325 1116493 1113636 1095732 1062050 1015651 963080 
2499.480 912209 870209 840728 822934 811780 801423 787746 770784 754520 
2503.819 744828 747251 762586 786751 811846 829805 835217 828577 814966 
2508.159 803381 802352 816460 846073 887108 933460 979186 1020733 1056769 
2512.499 1087992 1115630 1140379 1162438 1182106 1199782 1216362 1233076 
2516.356 1249723 1264577 1273981 1272586 1256070 1221745 1170113 1105066 
2520.213 1034150 966003 909719 873329 862041 877413 916559 973209 1038103 
2524.553 1101113 1154531 1194832 1223838 1247796 1275410 1313562 1364114 
2528.410 1422485 1478569 1520595 1538451 1528243 1493430 1443960 1391736 
2532.268 1347861 1318447 1303359 1297045 1292193 1282156 1263148 1236099 
2536.125 1204600 1174465 1151973 1141874 1147787 1171873 1213870 1271223 
2539.983 1339386 1410484 1475444 1525483 1553281 1555742 1533663 1491269 
2543.840 1434353 1368701 1299238 1229055 1161309 1100515 1052451 1025216 
2547.698 1025349 1056337 1115497 1193702 1275942 1344903 1386451 1392168 
2551.555 1362585 1306217 1238027 1173900 1126858 1104966 1109584 1136226 
2555.412 1177256 1224636 1270592 1309740 1338023 1352813 1352149 1334567 
2559.270 1300235 1251451 1192938 1132206 1077662 1037439 1017544 1020268 
2563.127 1043550 1081814 1127755 1173269 1212043 1240984 1259925 1271888 
2566.985 1281592 1294220 1313695 1341779 1377842 1419659 1463475 1505666 
2570.842 1543771 1576825 1604593 1627275 1644537 1654847 1655679 1644603 
2574.699 1620623 1585205 1543040 1500745 1466035 1445223 1441001 1452437 
2578.557 1474912 1501876 1526780 1544835 1554478 1556607 1553780 1548825 
2582.414 1544004 1540180 1537453 1535857 1535824 1537819 1542674 1550056 
2586.272 1558735 1566815 1572236 1574165 1573799 1574397 1580350 1594982 
2590.129 1619559 1651621 1686080 1716184 1736243 1744128 1741666 1733216 
2593.987 1725764 1723669 1728293 1736443 1742132 1739171 1723702 1696292 
2597.844 1662198 1629869 1607587 1600636 1609582 1630301 1655379 1677432 
2601.701 1691668 1697656 1699086 1701880 1712392 1734647 1768746 1810934 
2605.559 1854789 1893291 1920347 1932229 1928501 1911461 1884372 1852227 
2609.416 1819019 1787976 1761693 1742298 1732018 1733116 1748086 1778494 
2613.274 1824476 1883274 1949003 2012046 2062447 2090413 2089547 2060183 
2617.131 2008484 1946540 1889098 1850862 1841845 1866070 1920247 1995835 
2620.989 2080624 2161501 2228471 2275033 2298783 2301980 2289922 2269837 
2624.846 2249154 2234699 2230503 2237131 2251452 2267672 2278431 2277432 
2628.703 2261677 2233134 2198698 2167695 2150912 2155374 2183512 2231635 
2632.561 2290888 2349617 2396458 2423579 2427411 2409952 2376968 2336325 
2636.418 2296384 2263376 2241560 2232634 2235931 2249853 2272435 2301348 
2640.276 2334492 2370038 2405421 2438207 2465464 2484858 2494522 2494622 
2644.133 2486558 2473462 2459599 2448903 2444405 2447270 2456600 2470396 
2647.990 2485991 2501321 2515251 2527749 2539613 2551345 2563177 2574343 
2651.848 2584142 2592475 2600075 2609308 2623675 2646344 2679448 2722758 
2655.705 2773508 2826465 2875426 2914619 2940305 2951114 2949279 2938971 
2659.563 2925461 2913785 2907914 2908882 2915753 2925927 2936168 2943441 
2663.420 2946743 2946810 2946543 2949512 2959187 2977602 3004459 3037291 
2667.278 3072027 3105130 3133531 3156927 3176886 3195911 3216640 3239673 
2671.135 3263375 3284074 3297161 3298763 3287545 3265244 3236502 3207627 
2674.992 3185497 3174916 3178087 3194609 3221113 3253560 3287111 3317827 
2678.850 3342235 3358162 3364139 3359565 3344772 3320699 3289749 3255129 
2682.707 3220078 3188568 3163268 3145913 3136902 3135133 3138503 3144177 
2686.565 3149384 3151620 3149350 3141841 3129893 3115075 3099524 3085275 
2690.422 3073695 3064619 3056611 3047568 3034788 3016671 2993349 2966426 
2694.280 2939438 2915853 2899008 2889802 2887301 2888301 2889102 2885933 
2698.137 2876827 2861384 2840973 2817494 2792749 2767439 2741263 2713889 
2701.994 2685483 2657812 2634409 2620275 2619375 2634009 2662712 2700586 
2705.852 2739896 2772007 2790715 2793450 2782412 2763938 2746665 2739029 
2709.709 2746398 2770007 2806689 2849778 2891003 2923426 2942473 2947311 
2713.567 2940538 2927595 2914919 2908015 2910416 2923025 2943808 2969028 
2717.424 2994217 3016037 3032353 3043664 3051772 3059046 3067022 3075831 
2721.281 3083806 3089012 3088945 3083573 3074763 3066921 3064986 3073629 
2725.139 3094819 3127957 3168742 3210932 3248319 3275126 3288480 3287946 
2728.996 3275961 3256164 3233464 3212668 3197513 3190604 3192840 3203488 
2732.854 3220045 3239005 3256364 3268516 3272890 3267915 3254061 3232229 
2736.711 3204656 3174516 3144945 3119881 3103295 3097589 3103729 3119881 
2740.569 3141307 3161165 3172647 3170678 3153756 3125054 3091315 3061415 
2744.426 3042896 3040728 3055743 3084674 3121616 3160565 3196312 3225786 
2748.283 3247918 3262440 3270018 3271087 3266413 3257499 3246383 3236268 
2752.141 3230126 3230059 3236835 3248987 3264143 3279233 3291953 3301835 
2755.998 3309915 3318295 3329280 3344305 3363472 3384876 3405480 3421644 
2759.856 3430160 3429091 3418838 3401673 3381971 3365041 3356192 3358797 
2763.713 3373522 3398200 3428256 3458014 3482429 3498629 3505710 3505576 
2767.571 3501000 3494887 3489410 3486203 3486136 3490579 3500833 3518436 
2771.428 3544058 3576362 3612645 3649097 3682011 3709848 3733676 3757170 
2775.285 3784577 3819407 3861961 3909601 3957280 3999447 4033256 4059008 
2779.143 4080046 4101586 4127811 4159858 4195486 4229914 4257886 4276524 
2783.000 4286663 4292653 4301387 4319390 4350614 4395597 4451699 4514737 
2786.858 4580766 4647741 4715934 4786950 4862435 4942626 5025411 5106503 
2790.715 5180635 5242908 5290633 5323872 5345675 5361341 5377846 5401698 
2794.573 5438436 5491853 5562997 5650869 5752189 5862365 5975694 6086464 
2798.430 6190037 6282070 6360606 6425267 6477562 6520781 6559598 6599428 
2802.287 6645249 6701642 6771807 6857265 6958226 7072919 7198826 7332014 
2806.145 7467603 7600335 7724236 7834442 7927937 8004983 8069349 8128931 
2810.002 8193790 8273685 8377004 8507175 8663075 8838912 9027068 9219569 
2813.860 9410869 9598391 9783013 9967035 10153238 10343218 10537798 10737185 
2817.717 10942033 11154457 11377596 11615144 11869779 12142044 12429752 
2821.092 12729458 13036848 13349171 13666949 13993002 14332657 14691598 
2824.468 15074677 15484190 15920382 16381407 16864862 17368342 17889532 
2827.843 18427250 18980482 19548562 20131682 20731126 21349458 21990734 
2831.218 22660012 23361756 24099448 24875026 25689006 26542516 27438580 
2834.593 28382722 29385290 30459548 31619922 32882430 34260900 35767684 
2837.969 37414008 39209780 41165872 43294532 45609332 48125360 50858756 
2841.344 53824544 57035824 60501964 64226300 68204080 72422864 76860800 
2844.719 81485432 86259696 91139008 96072736 101009760 105891232 110653024 
2848.094 115228544 119543360 123522160 127094792 130194504 132765920 
2850.987 134764496 136154032 136909136 137014336 136468032 135285200 
2853.880 133502408 131176296 128376600 125186112 121687368 117956656 
2856.773 114067624 110082312 106057440 102044880 98087240 94221536 90476056 
2860.149 86869408 83415416 80124144 77004616 74068576 71327936 68793416 
2863.524 66473924 64371996 62485024 60805964 59324840 58030916 56912816 
2866.899 55958764 55153984 54480004 53914904 53431252 53000684 52595528 
2870.274 52188848 51759588 51289888 50766424 50182028 49534096 48826764 
2873.650 48070060 47280348 46478276 45685668 44925188 44216220 43575032 
2877.025 43014204 42541876 42163736 41882096 41696888 41606224 41605896 
2880.400 41691048 41856120 42095500 42404348 42777904 43212244 43703956 
2883.775 44250372 44849756 45501736 46206580 46963880 47772548 48628636 
2887.151 49526488 50459092 51419776 52404608 53413300 54448304 55514316 
2890.526 56615336 57752428 58922248 60117380 61328512 62545636 63761420 
2893.901 64972268 66179512 67388232 68606416 69843712 71109280 72410648 
2897.276 73752400 75135976 76558624 78015616 79500992 81009544 82538536 
2900.652 84088544 85663112 87267704 88909192 90593888 92327568 94114440 
2904.027 95957992 97860472 99824384 101851128 103943192 106104304 108339928 
2907.402 110657592 113066232 115574384 118188264 120910488 123739568 
2910.295 126671968 129702136 132826168 136040384 139340320 142718912 
2913.188 146161744 149647424 153148352 156630672 160060624 163405248 
2916.081 166631136 169705456 172591696 175249600 177639296 179721056 
2918.974 181463552 182844752 183851888 184478320 184719536 184571376 
2921.867 184030128 183096176 181778304 180095248 178076384 175758704 
2924.760 173180320 170380368 167395056 164257184 160999232 157651536 
2927.654 154240960 150791184 147319728 143839072 140358224 136884608 
2930.547 133426952 129994392 126595496 123237656 119924088 116655808 
2933.440 113432992 110257088 107133296 104071304 101081800 98176000 95361608 
2936.815 92641856 90017088 87485496 85046056 82700288 80451224 78302688 
2940.190 76258128 74318528 72482760 70748880 69115088 67581288 66148184 
2943.565 64817564 63589840 62463980 61436632 60503488 59661700 58910484 
2946.941 58252704 57693276 57237752 56888756 56644480 56495844 56426792 
2950.316 56416796 56440452 56471996 56489280 56471960 56406644 56286264 
2953.691 56108004 55872724 55582700 55238452 54838912 54379648 53854664 
2957.066 53258952 52588240 51840784 51018108 50123008 49160548 48136944 
2960.442 47060916 45942564 44794360 43629616 42459912 41294192 40137004 
2963.817 38988512 37846736 36709540 35576428 34450712 33337962 32245434 
2967.192 31179786 30145404 29144130 28175916 27240126 26335952 25464542 
2970.567 24626890 23825012 23059900 22331714 21639920 20983582 20361568 
2973.943 19773178 19217204 18691412 18192718 17717516 17262174 16824424 
2977.318 16403943 16002124 15620905 15261779 14924381 14605818 14302145 
2980.693 14008676 13722176 13441845 13169107 12906575 12657029 12422320 
2984.068 12202255 11995347 11799229 11612251 11433620 11264346 11107204 
2987.444 10966227 10845746 10750432 10683798 10647464 10640367 10659111 
2990.819 10698333 10752368 10817482 10893072 10983388 11095716 11238265 
2994.194 11418313 11637742 11893378 12177208 12478410 12786851 13094760 
2997.569 13399161 13700392 14001181 14305090 14614282 14928805 15247228 
3000.945 15565644 15879035 16180925 16463373 16719008 16939962 17121078 
3004.320 17259724 17356686 17414522 17436526 17424006 17375274 17285826 
3007.695 17148516 16957360 16708815 16404564 16051320 15660716 15245993 
3011.070 14820077 14392830 13969426 13549716 13130276 12705609 12270723 
3014.446 11823199 11364535 10900648 10440616 9993887 9569599 9173204 8805809 
3018.303 8464603 8144394 7839198 7544432 7257346 6977048 6703930 6438383 
3022.160 6180660 5930950 5690380 5461453 5248374 5055479 4886092 4741291 
3026.018 4618103 4511055 4413806 4321064 4229813 4140623 4055564 3976641 
3029.875 3904820 3838026 3772946 3705771 3634028 3557721 3479824 3403877 
3033.733 3333554 3271053 3216740 3169776 3128825 3093283 3062817 3037024 
3037.590 3015236 2995451 2975334 2952982 2927962 2901377 2875827 2854514 
3041.448 2839139 2828933 2820696 2809424 2790482 2760737 2719991 2670347 
3045.305 2615775 2559611 2503887 2448736 2392993 2335325 2275933 2216715 
3049.162 2162100 2117115 2086417 2072168 2073400 2085652 2101866 2115051 
3053.020 2119180 2111455 2093376 2069937 2048298 2035182 2035148 2048930 
3056.877 2073267 2102499 2130733 2153609 2169626 2180416 2189107 2198731 
3060.735 2211053 2225740 2241127 2255215 2266540 2275466 2282728 2289056 
3064.592 2293653 2294053 2286158 2266373 2233067 2187775 2135129 2082056 
3068.449 2034649 1996834 1969040 1948537 1930531 1910496 1885836 1856686 
3072.307 1825607 1796094 1771175 1752677 1739603 1730355 1722770 1715519 
3076.164 1708965 1704841 1704708 1709997 1719810 1731686 1741666 1746223 
3080.022 1742963 1732418 1717681 1703144 1693198 1689639 1690803 1691901 
3083.879 1686113 1666755 1630169 1577024 1512715 1445456 1384423 1337159 
3087.737 1306450 1292093 1290165 1296014 1305386 1315822 1326224 1336295 
3091.594 1344870 1349623 1347861 1336960 1316852 1290132 1262184 1240087 
3095.451 1230019 1235003 1254209 1282489 1312166 1335198 1345202 1339120 
3099.309 1317783 1285081 1247165 1210315 1179814 1158485 1147422 1145030 
3103.166 1148817 1156691 1167355 1180877 1199350 1224470 1257732 1298740 
3107.024 1344172 1389409 1428601 1456360 1469758 1468296 1453601 1428601 
3110.881 1396124 1357965 1315556 1270293 1224569 1182106 1148252 1127456 
3114.739 1122373 1131874 1150578 1170113 1181309 1177522 1156259 1120114 
3118.596 1075436 1031062 994861 971615 962715 965538 975567 987522 997219 
3122.936 1002001 1002201 998846 994994 993632 996621 1005256 1019404 1037372 
3127.275 1056570 1074705 1089620 1100316 1106959 1110514 1111809 1111245 
3131.133 1108155 1101080 1088690 1069657 1044081 1013492 980415 947772 
3134.990 919082 897035 883987 881762 891491 913073 944949 983836 1024685 
3139.330 1061917 1090483 1107258 1111942 1106428 1094968 1081980 1070620 
3143.187 1062382 1056537 1051554 1045377 1036774 1025548 1012430 998614 
3147.044 984898 971615 958996 946709 934855 923034 910682 896903 880069 
3151.384 858854 833324 804543 775830 751168 734473 728233 732581 744928 
3155.724 760794 776162 787414 793522 795348 795116 795547 798734 805240 
3160.063 814800 826419 838370 849459 858489 864133 866457 865428 862174 
3164.403 858356 856165 857327 862905 872300 883854 895541 905004 910549 
3168.742 912309 910682 906797 902049 897567 894612 894578 899061 908955 
3173.082 924362 943389 961885 974836 977426 966700 943521 911977 879073 
3177.422 852314 837142 835881 846836 865893 886710 904738 916194 919248 
3181.761 913504 898729 875222 844014 806734 766569 727835 695111 671914 
3186.101 659901 658375 665277 677821 694082 713730 737593 766602 801024 
3190.440 839034 877347 911379 936714 950362 951292 940300 920145 894379 
3194.780 867486 843018 825058 816460 818485 830934 850554 872665 891291 
3199.120 901352 899758 887174 866756 844645 827349 819846 824361 840130 
3203.459 863170 888336 910184 925126 931169 929143 921706 911977 903576 
3207.799 898961 898895 903078 909619 915164 917057 911977 897500 872367 
3212.138 836113 789904 736332 679215 622769 571540 529108 497693 478055 
3216.478 469597 471521 483230 504526 535179 574261 619319 665410 705997 
3220.818 734440 745791 738854 716750 687180 658839 639891 635876 647490 
3225.157 671649 702346 733079 758072 773606 778054 771448 755450 732780 
3229.497 707623 684956 669857 666439 675930 696173 722060 746687 763681 
3233.836 768992 762254 745658 723321 698563 673673 648652 623665 599244 
3238.176 577313 560724 551833 550539 554222 558236 558236 553193 546425 
3242.516 545397 559331 595064 653463 727802 806435 874857 921440 941363 
3246.855 936515 914467 883257 850554 818784 787481 753724 715920 675000 
3251.195 635511 603724 585674 585939 604885 639195 682534 727802 766635 
3255.534 792825 801290 790070 760130 715555 663916 613180 571540 544169 
3259.874 532790 535378 546724 561885 576749 590153 603093 617494 634947 
3264.214 655554 677456 698198 715920 729627 739916 748712 757508 766735 
3268.553 775963 783796 789240 791862 791730 789672 785356 777622 764743 
3272.893 744895 718210 687113 655753 629306 612317 606113 609696 619484 
3277.232 631596 642612 652269 661693 673573 689801 710212 732249 751865 
3281.572 765175 769789 766635 759632 754387 756645 769955 794916 828843 
3285.912 866158 899725 923333 931667 921971 894379 851185 796842 736995 
3290.251 677954 624727 581527 550207 530335 519852 515573 514578 515241 
3294.591 517232 522108 531530 546923 567824 591447 613346 628477 633255 
3298.930 626652 611720 594135 580963 578773 590684 615901 649050 682699 
3303.270 708652 720600 716053 696439 666970 633620 602662 578375 562151 
3307.610 553558 550539 550838 552662 555416 558966 563412 568587 573630 
3311.949 576351 575422 569848 560757 551501 547454 554354 577081 618024 
3316.289 675332 742903 811381 870607 911246 927616 918817 888967 845442 
3320.628 797340 753292 719770 699990 693950 699592 713365 731984 752628 
3324.968 773274 793024 810917 826054 836545 840263 834785 818518 791564 
3329.308 757242 720766 689735 671649 671549 690897 726142 769556 811016 
3333.647 841989 856431 853509 836744 812610 788178 767664 751898 738257 
3337.987 723354 703176 677456 648685 622935 606444 604852 620812 652700 
3342.326 695277 740646 780942 809390 822469 819946 805472 784261 762453 
3346.666 745160 734373 729860 727935 724649 715356 697633 672014 641551 
3351.006 611421 586702 572005 568919 577048 593969 616564 641451 666439 
3355.345 690166 711606 730623 746123 757408 764378 766934 766602 766005 
3359.685 768029 775432 789605 809522 831963 852314 865494 867254 856032 
3364.024 833524 804410 775033 752529 741874 745160 760661 783962 808228 
3368.364 826453 833291 825125 801423 764345 718642 670122 626121 593504 
3372.704 577446 580830 603093 640389 686350 733842 777224 813207 841856 
3377.043 865195 886643 907760 927981 944086 951259 945016 923100 886610 
3381.383 839134 787116 736730 694016 663153 646296 643907 654492 675797 
3385.722 703143 731751 756313 772809 779747 777622 769357 758968 749575 
3390.062 742538 737560 732946 727968 723520 722857 729494 746654 774203 
3394.402 808493 842952 870275 885049 885016 872001 849990 824096 797340 
3398.741 771282 745293 719040 693286 670388 652733 642347 638066 636938 
3403.081 634118 626851 615536 605681 604819 620812 658142 715057 784161 
3407.420 854007 913803 955708 977758 982706 976928 966036 953583 940433 
3411.760 925491 907694 888370 870341 858954 858622 871171 894944 925126 
3416.100 955675 980481 996123 1002101 1000440 994894 989083 985562 985097 
3420.439 987024 989348 990245 988917 984832 979219 973674 969058 966135 
3424.779 963678 959594 951524 937578 917522 894114 871570 855069 849459 
3429.118 856132 873628 897235 920510 937478 944584 941263 929874 914434 
3433.458 898198 883589 871205 859784 848164 836146 824295 813705 806170 
3437.798 801755 799663 798601 796709 792958 788277 784991 786385 796311 
3442.137 817390 850455 894379 945381 998913 1049429 1091480 1121310 1137223 
3446.477 1140412 1134831 1126492 1121177 1122041 1129781 1141608 1153933 
3450.334 1162538 1164797 1161076 1153501 1145528 1141010 1142007 1149415 
3454.192 1162239 1179316 1199251 1221280 1244573 1267933 1289301 1306084 
3458.049 1315489 1316221 1308477 1294984 1279598 1266338 1257964 1255671 
3461.906 1258430 1264344 1272021 1281159 1292957 1309541 1332606 1362020 
3465.764 1396191 1431494 1463974 1490405 1509456 1522158 1531136 1539415 
3469.621 1549191 1561162 1573499 1583276 1586702 1580084 1561528 1531169 
3473.479 1490638 1443894 1396057 1352548 1318414 1297443 1291628 1300567 
3477.336 1321871 1351750 1385221 1417033 1442331 1457657 1461048 1452604 
3481.194 1434452 1409986 1382163 1354276 1327255 1301132 1274779 1246699 
3485.051 1215664 1182273 1147621 1114533 1086331 1065837 1055042 1054145 
3488.908 1060921 1071782 1081814 1085933 1079854 1061585 1031925 994662 
3492.766 956074 923598 903610 900190 913172 939005 971216 1002101 1025814 
3497.105 1038036 1036973 1022626 996422 959760 914965 866191 819149 781771 
3501.445 762885 768627 800261 850886 908258 955575 977692 966235 920444 
3505.785 847102 757773 666239 584679 522937 486481 477060 491921 526155 
3510.124 573066 625291 677224 724483 765407 800161 830171 857128 882161 
3514.464 903776 919481 926520 922336 907395 884551 858257 833690 813107 
3518.803 795647 777888 755217 724616 687213 648187 616399 600240 605648 
3523.143 631994 673474 719936 761225 790966 807564 813307 812942 811514 
3527.483 811647 813971 817091 819216 819249 816560 811414 803879 793721 
3531.822 780411 764246 746123 728665 715688 710245 714460 727968 747882 
3536.162 768461 783697 788311 779315 757010 724815 688308 654824 631529 
3540.501 624628 637768 670786 719670 777158 833457 879339 907096 913338 
3544.841 898828 869146 832063 796244 769092 755748 758769 778286 812676 
3549.181 858157 909354 958730 998415 1021131 1022393 1002666 967862 925956 
3553.520 885116 850023 821008 794916 767764 736132 699990 661693 626419 
3557.860 600206 587963 592277 613080 647922 691726 739352 785024 823996 
3562.199 852679 869279 873462 866922 852413 833092 811614 788576 763117 
3566.539 733079 697069 656052 614275 576749 547454 528411 519620 519255 
3570.879 526222 539060 557207 580631 609198 641816 677224 713033 746886 
3575.218 777722 805472 830669 853476 872699 884950 885880 871304 839798 
3579.558 793854 740281 688408 647590 623732 618854 629306 648619 668430 
3583.897 681272 682334 669757 644570 610459 573099 538098 509801 489698 
3588.237 475070 461570 445052 423560 397757 371425 349837 340453 349970 
3592.577 382933 439579 514777 597585 674237 733676 769291 781340 775863 
3596.916 760727 743368 728067 715256 702844 686947 664680 635943 604155 
3601.256 574725 553624 544833 548549 561421 576981 588162 587864 570943 
3605.595 535676 484457 424123 364494 317042 290318 286903 302320 327421 
3609.935 351860 367645 370861 362339 347085 331632 323807 328283 345095 
3614.275 369701 395634 417391 431453 438286 440740 443261 450558 464323 
3618.614 482766 500944 512222 513450 505322 492518 480775 474937 477425 
3622.954 488007 504593 523800 542776 559663 573431 584380 592310 595395 
3627.293 589954 570876 534084 482401 426047 377361 343702 326095 321452 
3631.633 326658 339093 357365 380114 405086 428634 446279 453643 449297 
3635.973 434571 414008 394938 385254 390162 411089 444389 483263 519819 
3640.312 548383 566663 576052 580266 582721 585044 586470 584645 577512 
3644.652 564639 547918 531397 519686 515274 516104 514578 498423 458618 
3648.991 395137 320027 251493 206275 190330 198518 220364 245426 267109 
3653.331 282360 291213 295788 299071 303846 312433 326327 345460 370596 
3657.671 402831 443460 493579 552662 618058 684757 746023 794817 825158 
3662.010 834719 823764 797140 761789 725611 696107 677788 672047 677356 
3666.350 689801 703972 714792 717414 708088 685188 648818 602197 551335 
3670.689 502503 460575 428601 407872 398984 403130 420309 449264 484955 
3675.029 517364 536771 539823 531530 520217 511924 508441 508607 509370 
3679.369 507744 501839 491622 478453 464157 449961 436329 423029 410061 
3683.708 398221 389532 386713 392517 409398 437987 477923 526023 577678 
3688.048 626021 664049 685885 687976 669425 631032 575986 510166 441569 
3692.387 379882 334583 312102 316247 346488 397724 460509 524430 577711 
3696.727 612085 624561 617394 596988 571042 547785 533553 532293 544733 
3701.067 568090 596059 620248 633753 632326 615005 583650 542079 494376 
3705.406 444455 396397 351794 311836 276591 245791 220960 206109 208032 
3709.746 235713 295523 387211 499152 610260 697766 745326 750172 720732 
3714.085 672744 621143 578706 553060 545828 553392 568322 581726 585243 
3718.425 575024 551733 520748 489068 463162 446346 438584 435964 433277 
3722.765 427142 417026 406015 399614 404125 423659 458485 503763 550738 
3727.104 589622 612251 615337 599377 567890 525591 479117 435533 402798 
3731.444 389101 400344 438916 502271 584247 675465 763615 834520 874126 
3735.783 874027 835881 771349 695675 621807 559530 513649 486580 477757 
3740.123 483728 498622 514909 524828 520781 497859 454737 398984 348345 
3744.463 323276 334418 375106 428170 477326 513483 531994 532989 520284 
3748.802 500977 483197 473378 471886 473975 473279 466678 456860 450923 
3753.142 454571 469730 494177 521644 545198 558203 556809 541150 516435 
3757.481 490859 472649 467540 474971 489864 504228 512587 513251 509303 
3761.821 506052 509038 521378 543174 571938 601666 626021 639493 640555 
3766.161 631828 618456 605018 593969 586138 579403 571805 561919 550075 
3770.500 538563 529771 524762 522340 520317 515374 505223 489897 471554 
3774.840 454737 444787 446279 460907 487907 522241 557904 587897 607738 
3779.179 617095 620347 624362 634980 654923 682202 712734 739352 754753 
3783.519 752861 730623 689337 635080 577313 524762 484690 459812 449364 
3787.859 449762 456097 463593 469265 472151 474274 479250 490130 508175 
3792.198 532425 559231 583484 601069 608833 606179 595030 579105 563412 
3796.538 552430 548781 553525 567061 588992 619750 658507 701948 742870 
3800.877 771316 778319 764146 738821 716352 706959 714227 735070 761789 
3805.217 782734 783663 754155 692655 610990 529572 468436 438120 439712 
3809.557 468204 516004 574758 636341 693950 742372 777821 797970 801921 
3813.896 788842 759599 718675 674834 639891 624694 632492 658872 694613 
3818.236 730457 756877 765640 751002 711971 656616 601268 563710 552098 
3822.575 563246 587731 616664 643542 665343 682268 695808 708254 720036 
3826.915 729694 733676 728797 713398 688540 658142 627249 600903 581560 
3831.255 568090 556677 542477 523004 500944 483164 478686 495304 536771 
3835.594 600804 679215 758902 827282 874591 897633 897932 880335 848795 
3839.934 805738 752993 693784 633222 579204 538828 517066 514511 526553 
3844.273 545165 563246 577346 588461 600903 619518 648088 686914 733245 
3848.613 781672 826950 864996 895143 918618 937976 954612 966036 965040 
3852.953 943621 900655 846272 795149 757109 733876 721994 716352 712236 
3857.292 706860 699558 690498 680808 670587 658806 643110 621011 591082 
3861.632 554985 517497 484922 464489 460409 472118 494143 518061 536041 
3865.971 544700 545065 542112 542577 553160 579105 621774 675896 728930 
3870.311 767631 784361 779979 760528 733809 707557 688441 681571 689138 
3874.651 709847 738522 768992 795879 815564 825722 825689 815996 798833 
3878.990 777987 759167 748413 749807 763283 785788 811780 836013 854571 
3883.330 864531 863369 850256 826519 797406 770353 753923 752230 764943 
3887.669 787813 815464 841823 860747 867154 857460 831299 791829 745459 
3892.009 698297 654724 616797 584712 559264 541781 533885 537169 552198 
3896.349 577346 609431 644172 676626 703906 725246 742206 757740 774104 
3900.688 791497 807630 819315 822602 814269 793887 762055 722491 680443 
3905.028 641783 611820 594135 590419 600406 621177 648287 676129 699990 
3909.367 716650 726375 732349 739584 752296 772942 799398 827083 848695 
3913.707 858290 851617 827415 787813 737858 684292 633852 592542 563611 
3918.047 547487 542842 547354 557639 571175 586238 602297 620845 643774 
3922.386 672943 708353 747417 783995 811083 823299 819581 804344 784858 
3926.726 768992 761026 761026 764843 766303 759101 740381 712767 683463 
3931.065 661826 655023 665012 687445 713132 732116 738257 730888 714526 
3935.405 696439 685388 687910 707092 741941 787448 836379 881098 915662 
3939.745 937013 945082 942559 934622 927649 926421 934224 950462 971582 
3944.084 992437 1008079 1014987 1011599 997684 974537 944783 911313 878144 
3948.424 849957 830602 822900 828013 843815 865959 889200 908291 919846 
3952.763 923665 921805 918352 916426 917854 920875 921838 915795 899326 
3957.103 872001 837109 800460 768859 747915 740812 747052 764146 788344 
3961.443 815531 842454 866357 885348 897500 901651 897699 886411 870607 
3965.782 854439 842288 837906 842852 856364 875454 896438 915762 931700 
3970.122 943820 953118 960357 965903 968825 967630 960855 948502 932298 
3974.461 915596 902016 894446 892852 894844 896604 893815 883655 866922 
3978.801 846438 827183 813838 808526 810253 815199 817622 813041 800327 
3983.141 782336 764777 754852 757839 774934 802850 834652 862772 881364 
3987.480 888336 886212 880866 878608 884120 898828 919946 942160 959261 
3991.820 966003 959859 940865 911246 874989 836578 800493 771183 751666 
3996.159 743733 747882 762188 783431 807630 831133 851982 869545 885415 
4000.499 901617 
##END=
