##TITLE=drugomas_0 Sep 21 08:24:18 2026 (GMT+02:00)
##JCAMP-DX=5.01  $$ Nicolet v. 1
##DATATYPE=INFRARED SPECTRUM
##ORIGIN=Vojna akademija
##OWNER=Nicolet
##LONGDATE=2026/09/21
##TIME=08:24:52
##SPECTROMETER/DATA SYSTEM=Nicolet iS20
##DATA PROCESSING=
Ratio against background
%Transmittance->Absorbance
Truncated
ElementMultiply or ElementDivide
##COMMENTS=
Number of sample scans: 8
Collection length: 11,90 sec
Sample gain: 8,0
Background collected on: Mon Sep 21 08:08:20 2026 (GMT+02:00);
Number of background scans: 8
Background gain: 8,0
Sample spacing:  1,000
Number of scan points: 12415
Resolution points: 8286
Number of FFT points: 65536
Apodization: N-B strong;
Phase correction: Mertz;
Laser frequency: 15798,00 cm-1
Number of rejected sample scans: 0
Number of rejected background scans: 0
Bench serial number: BER2010005;
##RESOLUTION= 4,000
##XUNITS=1/CM
##YUNITS=ABSORBANCE
##FIRSTX=400.156891
##LASTX=4000.123047
##FIRSTY=0.023141
##MAXX=4000.123047
##MINX=400.156891
##MAXY=0.229527
##MINY=-0.004770
##XFACTOR=1.000000
##YFACTOR=1.000000E-009
##NPOINTS=7468
##DELTAX=0.482117
##ZPD=6100
##XYDATA=(X++(Y..Y))
400.157 23140762 24739330 24632782 23420572 21740374 20094412 18745896 
403.532 17766528 17078344 16539436 15993392 15317826 14438660 13345617 
406.907 12106131 10874250 9886555 9398679 9637451 10676871 12381816 14397181 
410.763 16263336 17566440 18010014 17514346 16216865 14447258 12605486 
414.138 11078279 10131972 9859778 10226099 11094560 12280540 13530062 
417.513 14561204 15110320 15047646 14486036 13745943 13153977 12838313 
420.888 12739489 12710795 12633695 12462145 12249694 12114955 12198132 
424.263 12575538 13213202 13972369 14681487 15203406 15481065 15539269 
427.638 15454077 15306155 15142776 14976269 14801769 14628641 14504502 
431.012 14503200 14689164 15072138 15584910 16093303 16439937 16514929 
434.387 16281052 15792746 15167892 14547260 14031090 13649101 13370765 
437.762 13141853 12923062 12698274 12464941 12211626 11900733 11478833 
441.137 10905371 10197028 9445204 8815005 8473016 8511062 8902219 9511242 
444.994 10153610 10670248 10998511 11178255 11335013 11603777 12075979 
448.369 12747473 13532385 14296837 14920849 15334301 15524021 15530546 
451.743 15424894 15280072 15141678 15020343 14896709 14736396 14499226 
455.118 14152184 13673652 13061467 12347043 11603981 10946383 10486777 
458.493 10290457 10347291 10588994 10925587 11283933 11628996 11955633 
461.868 12277642 12612000 12965459 13330686 13699126 14068907 14450136 
465.243 14860259 15305229 15762405 16170263 16440626 16489735 16266327 
468.617 15771443 15049739 14174298 13214944 12227065 11255097 10340470 
471.992 9542028 8946323 8643369 8701239 9127927 9864252 10788881 11749490 
475.849 12585941 13134271 13268268 12916576 12094105 10909652 9560454 
479.224 8296279 7351290 6923616 7113099 7891259 9087493 10429824 11617458 
483.081 12388634 12619811 12341930 11727873 11007482 10398227 10020130 
486.456 9869946 9845543 9800839 9609672 9193813 8551138 7748757 6907019 
490.313 6153471 5604245 5336518 5369660 5667922 6145876 6699825 7232515 
494.170 7690812 8075122 8430953 8815783 9264247 9759156 10230814 10573852 
498.027 10693986 10549714 10166296 9628981 9044897 8521233 8123699 7865649 
501.884 7720121 7650714 7641508 7709969 7891157 8213645 8670647 9214797 
505.740 9761359 10217143 10513085 10617617 10546319 10342200 10053565 
509.115 9711818 9328868 8905770 8448994 7980514 7540049 7172112 6916008 
512.972 6791394 6797520 6915199 7112459 7347718 7563313 7695602 7679885 
516.829 7469423 7059650 6501139 5896220 5365165 5021925 4928852 5077604 
520.686 5397136 5784692 6142684 6406436 6564610 6651070 6730750 6866252 
524.543 7098919 7427391 7807824 8162187 8410819 8502817 8430244 8230899 
528.400 7970727 7722617 7536374 7427559 7369387 7308359 7183195 6961829 
532.257 6662913 6362959 6172459 6195650 6494109 7048739 7758438 8459164 
536.114 8990972 9233411 9143695 8758608 8174240 7506741 6854471 6289062 
539.971 5846581 5544639 5398779 5426928 5645129 6052763 6621362 7289927 
543.828 7974946 8593651 9073045 9368716 9467724 9389369 9175065 8879831 
547.685 8568474 8299082 8119580 8055071 8099224 8211956 8330864 8396968 
551.542 8373896 8268518 8128661 8031343 8049873 8228062 8561479 8998516 
555.398 9453602 9832053 10059872 10088731 9904894 9524721 8992563 8374201 
559.255 7748690 7207315 6830942 6675060 6753297 7029914 7425773 7843112 
563.112 8205372 8474098 8663886 8826536 9030147 9324806 9724525 10203879 
566.969 10711679 11192092 11601701 11923517 12163782 12344691 12491539 
570.344 12629772 12781391 12964810 13197763 13492086 13850401 14262424 
573.719 14708119 15161373 15597172 15999993 16361175 16677929 16947782 
577.094 17163510 17315582 17395690 17400586 17335684 17213012 17049636 
580.469 16861316 16662780 16467813 16291337 16151693 16067343 16049154 
583.843 16093407 16177727 16267153 16323743 16326461 16279675 16212566 
587.218 16163969 16165586 16226530 16330933 16446684 16544839 16617749 
590.593 16685057 16784646 16951572 17196636 17493406 17786826 18012604 
593.968 18128698 18128216 18043240 17927410 17839228 17816650 17864362 
597.343 17955864 18047038 18092946 18059680 17934730 17725832 17458876 
600.717 17166922 16884774 16640574 16446717 16297907 16168199 16019039 
604.092 15806044 15499778 15097695 14631554 14158278 13746901 13457463 
607.467 13319206 13325493 13435591 13593782 13740950 13832340 13843765 
610.842 13767593 13611526 13394583 13147078 12904868 12707110 12586214 
614.217 12556609 12608453 12707519 12810670 12878757 12896096 12875481 
617.592 12848449 12841078 12854695 12853500 12778081 12566635 12187193 
620.966 11657380 11049320 10469466 10019690 9775558 9756377 9926489 10209171 
624.823 10518143 10778860 10941966 10992802 10941694 10820098 10667566 
628.198 10532366 10461999 10493261 10645834 10912744 11260163 11634645 
631.573 11985095 12277097 12504362 12686640 12857357 13044394 13254637 
634.948 13468878 13649853 13757332 13759213 13642707 13411704 13081476 
638.323 12672585 12211286 11732060 11278050 10902924 10659111 10580609 
641.697 10671709 10902721 11219938 11561853 11885273 12178810 12461497 
645.072 12767298 13125665 13540658 13986740 14412901 14763613 15001374 
648.447 15117319 15136532 15104454 15075192 15090697 15172661 15322184 
651.822 15523541 15748009 15962075 16134739 16241355 16272347 16237848 
655.197 16167168 16102415 16085120 16145572 16291095 16506050 16758645 
658.571 17017384 17259278 17478090 17679450 17871094 18053878 18217286 
661.946 18342524 18414666 18431640 18409238 18374566 18356594 18374670 
665.321 18434888 18532492 18661040 18824122 19047050 19373254 19832690 
668.696 20408622 21035224 21646642 22204622 22700578 23141670 23542984 
672.071 23923520 24304952 24707096 25142438 25611570 26100140 26581510 
675.446 27020958 27389946 27676922 27897020 28091180 28316936 28631386 
678.820 29069974 29636904 30300812 31010042 31704176 32339446 32899622 
682.195 33394064 33848952 34293740 34751800 35234596 35743472 36273616 
685.570 36816136 37357600 37878228 38353328 38756164 39069352 39294576 
688.945 39455544 39591960 39745992 39948612 40207116 40505600 40812368 
692.320 41097504 41341420 41543800 41719424 41890672 42075932 42285960 
695.694 42522800 42784484 43068936 43374196 43695968 44022968 44335060 
699.069 44609260 44827716 44990600 45120052 45261316 45468180 45788048 
702.444 46250216 46855836 47579592 48378220 49207820 50028676 50813424 
705.819 51547580 52224196 52843824 53411800 53939556 54440264 54925496 
709.194 55402316 55871252 56330248 56784216 57250756 57768244 58389284 
712.569 59166100 60138956 61318360 62682496 64179740 65750280 67341648 
715.943 68920576 70478288 72019368 73548336 75061016 76537288 77944048 
719.318 79244216 80395200 81355984 82086352 82547752 82712360 82568912 
722.693 82129144 81422520 80491536 79377304 78109416 76707376 75185296 
726.068 73559568 71859088 70123480 68396384 66717536 65108820 63571892 
729.443 62089624 60637460 59192072 57743340 56296868 54871768 53492708 
732.817 52180404 50947420 49794728 48715736 47698984 46734572 45812864 
736.192 44923940 44054800 43187100 42299836 41375716 40404892 39390452 
739.567 38346088 37293256 36251828 35235100 34247596 33287984 32354652 
742.942 31453032 30596900 29807640 29105332 28500348 27988752 27553268 
746.317 27169150 26811556 26463590 26116292 25766948 25414512 25056710 
749.692 24690646 24315990 23938716 23571738 23230796 22930360 22676140 
753.066 22462124 22273500 22093638 21910574 21721146 21529394 21341348 
756.441 21157732 20970820 20764142 20519176 20224082 19876982 19489470 
759.816 19083264 18686222 18323516 18016922 17782440 17629860 17562474 
763.191 17575032 17651772 17763594 17874098 17947266 17954550 17884940 
766.566 17746266 17562542 17362410 17172196 17005874 16862176 16727032 
769.940 16580019 16403427 16186530 15930451 15647216 15358467 15087301 
773.315 14855048 14675009 14548184 14463290 14398996 14332075 14243078 
776.690 14123773 13976920 13813527 13644041 13471442 13289141 13085403 
780.065 12851077 12589556 12319228 12070460 11873866 11745268 11679299 
783.440 11649280 11620215 11563520 11472165 11363719 11271929 11227011 
786.815 11240680 11295903 11354842 11370555 11308215 11159284 10941523 
790.189 10689741 10437833 10209681 10010975 9836561 9680917 9548158 9453196 
794.046 9415000 9443139 9529022 9644700 9754615 9826155 9845949 9823105 
797.903 9784266 9758851 9767255 9813379 9886623 9969442 10047426 10113996 
801.760 10170367 10219586 10260770 10288998 10298023 10287777 10268743 
805.135 10259956 10282076 10346137 10445029 10552905 10631572 10648889 
808.510 10588043 10459929 10299549 10160564 10095344 10139705 10304367 
811.885 10571068 10897420 11226432 11505268 11692914 11773558 11758988 
815.259 11686311 11605104 11561240 11586558 11685358 11834911 11991158 
818.634 12108312 12150834 12106609 11988842 11831710 11677802 11563554 
822.009 11514931 11541947 11643018 11808388 12025596 12278018 12544774 
825.384 12801797 13023362 13188268 13286476 13322110 13311929 13277218 
828.759 13237625 13200769 13162618 13108965 13028312 12918385 12794461 
832.133 12685719 12628101 12651502 12766548 12960305 13198173 13438222 
835.508 13639869 13782470 13871029 13936887 14025512 14183166 14440887 
838.883 14800877 15234359 15686547 16096191 16407866 16592825 16655687 
842.258 16631622 16571414 16525391 16530590 16598918 16718525 16861212 
845.633 16996364 17098952 17156546 17170404 17151308 17113944 17072552 
849.008 17039092 17021414 17024756 17051876 17102604 17174678 17263654 
852.382 17364378 17472020 17582690 17692460 17796284 17888564 17963944 
855.757 18021482 18068282 18119304 18194758 18309726 18465450 18642052 
859.132 18801598 18894854 18881462 18747002 18511298 18225786 17956346 
862.507 17765836 17688008 17718792 17818342 17930724 18001208 17997858 
865.882 17920090 17794314 17660020 17551674 17489336 17472918 17489302 
869.256 17521590 17560988 17609950 17681174 17788654 17940600 18132570 
872.631 18348850 18564756 18755270 18901950 18994606 19033618 19024478 
876.006 18975152 18891600 18777516 18636900 18475372 18304230 18138164 
879.381 17990846 17871472 17779748 17705228 17631172 17542842 17434044 
882.756 17312858 17199394 17120770 17101124 17151616 17267414 17428006 
886.131 17607050 17777918 17922678 18032464 18102824 18128078 18096988 
889.505 17993988 17807952 17540322 17213252 16865656 16548971 16310705 
892.880 16180031 16163111 16241424 16381510 16543634 16696593 16819880 
896.255 16903650 16946232 16950504 16923494 16876952 16829420 16802210 
899.630 16813610 16871236 16965768 17072070 17155134 17185122 17148482 
903.005 17054254 16929972 16813300 16737396 16718114 16752962 16822772 
906.379 16902204 16966938 17000808 16995572 16949780 16866930 16756371 
909.754 16637750 16538782 16495999 16543910 16702274 16966490 17301824 
913.129 17651910 17947714 18133572 18178276 18082306 17873406 17596630 
916.504 17300306 17021414 16783474 16595131 16454253 16353641 16283631 
919.879 16234545 16195301 16156061 16108466 16047264 15971426 15883261 
923.254 15786353 15684349 15580858 15480721 15391010 15322665 15287278 
926.628 15293319 15342196 15427572 15537208 15659135 15787350 15925091 
930.003 16080787 16260652 16461549 16666327 16850670 16989884 17075208 
933.378 17119424 17157442 17231042 17374412 17598528 17885596 18193168 
936.753 18470360 18678094 18796754 18831908 18806754 18752400 18695976 
940.128 18657444 18650664 18686222 18775130 18927698 19146974 19424498 
943.502 19737116 20053324 20338478 20568612 20735746 20848400 20925548 
946.877 20988902 21056580 21138460 21239596 21362022 21508226 21680218 
950.252 21876878 22091164 22309740 22516910 22701592 22862146 23007878 
953.627 23154916 23318822 23505068 23705530 23899644 24063620 24177666 
957.002 24235786 24246298 24231266 24217148 24227588 24279862 24380192 
960.377 24525944 24707412 24910852 25117934 25308220 25463030 25566690 
963.751 25611992 25601202 25546448 25464366 25372252 25283494 25203496 
967.126 25132222 25065556 25000236 24935382 24872922 24816188 24767392 
970.501 24726316 24691628 24661958 24638568 24626048 24631764 24661922 
973.876 24719654 24800754 24894746 24984862 25052146 25080580 25059800 
977.251 24989776 24882956 24762902 24658592 24599258 24605114 24680124 
980.625 24809136 24959034 25090796 25166874 25165612 25088198 24958402 
984.000 24814926 24698644 24643792 24664974 24756902 24896116 25051796 
987.375 25192156 25293994 25348472 25361608 25352194 25345240 25367474 
990.750 25437172 25558678 25720716 25898884 26061858 26181252 26242458 
994.125 26248582 26219404 26181850 26161476 26171400 26208528 26256396 
997.500 26294238 26307050 26292968 26264034 26241190 26246364 26291912 
1000.874 26377744 26491272 26615222 26733218 26836724 26928160 27017502 
1004.249 27117268 27237056 27379746 27539676 27704362 27859040 27991898 
1007.624 28097578 28180690 28253208 28332284 28432422 28559438 28707414 
1010.999 28861034 29001674 29116564 29207490 29291346 29396316 29547412 
1014.374 29756470 30012134 30283476 30525696 30700194 30787468 30793302 
1017.748 30743936 30677790 30630500 30624704 30670608 30769150 30919234 
1021.123 31121476 31377412 31682432 32020160 32362294 32674972 32927714 
1024.498 33108260 33223454 33296640 33352382 33407234 33459730 33494518 
1027.873 33491906 33441264 33349018 33238656 33138298 33069070 33034782 
1031.249 33020514 33000532 32951626 32865274 32750818 32631892 32533318 
1034.624 32472860 32453082 32463148 32484968 32501284 32499820 32472610 
1037.999 32414376 32318994 32181128 32001116 31789656 31570890 31376130 
1041.374 31239170 31181280 31205596 31294930 31420690 31553396 31672846 
1044.750 31775076 31870306 31975150 32103314 32261494 32447226 32653432 
1048.125 32871850 33097926 33330306 33569900 33818116 34076756 34348640 
1051.500 34638172 34950340 35287924 35648684 36022776 36395636 36754144 
1054.875 37091760 37412636 37729552 38057292 38403276 38762900 39119964 
1058.251 39453692 39747664 39996856 40205808 40385220 40541576 40672912 
1061.626 40771132 40830388 40857216 40876180 40923984 41038208 41240300 
1065.001 41523344 41849736 42164832 42419616 42585656 42668516 42701384 
1068.376 42732308 42801452 42930988 43121300 43360980 43639948 43961844 
1071.752 44345736 44819816 45407220 46112356 46915928 47779868 48659468 
1075.127 49513896 50320408 51074864 51792104 52497888 53225616 54007872 
1078.502 54870000 55825848 56872776 57991188 59144456 60291084 61395676 
1081.877 62439072 63423976 64372452 65315188 66276728 67269064 68287288 
1085.253 69315720 70338016 71346992 72349272 73363600 74411680 75509576 
1088.628 76659384 77846488 79040576 80200224 81284976 82256504 83089400 
1092.003 83774712 84320072 84746520 85079912 85345440 85557256 85720336 
1095.378 85832248 85888608 85888040 85832528 85723688 85557784 85322248 
1098.754 84999272 84570800 84029392 83383264 82657320 81882736 81088528 
1102.129 80294168 79505880 78723464 77948808 77192664 76478336 75836776 
1105.504 75297952 74885120 74608832 74468792 74457856 74569096 74798240 
1108.879 75143416 75602120 76165336 76816704 77533888 78292808 79074568 
1112.255 79868928 80673312 81489712 82318576 83156248 83994336 84820952 
1115.630 85621176 86376912 87060144 87630888 88040840 88235504 88172104 
1119.005 87833520 87235056 86421872 85457568 84409800 83330152 82253096 
1122.380 81193968 80156504 79140952 78151016 77195592 76290600 75457176 
1125.755 74721064 74115152 73674584 73435168 73429200 73676624 74185776 
1129.131 74952096 75964320 77211304 78688480 80399344 82350616 84542904 
1132.506 86961368 89567392 92306376 95115376 97937512 100738160 103504000 
1135.881 106237328 108941768 111612216 114230728 116773424 119218760 
1138.774 121556712 123786536 125907824 127909200 129762976 131429808 
1141.667 132877592 134094384 135099520 135934400 136651680 137292016 
1144.560 137876192 138409328 138892832 139339088 139780016 140256208 
1147.453 140806144 141447728 142170928 142943152 143725168 144491584 
1150.347 145237872 145979696 146738128 147524816 148332528 149137568 
1153.240 149910896 150634448 151305664 151935920 152537712 153113984 
1156.133 153653936 154138528 154551120 154888384 155160480 155382528 
1159.026 155560688 155682256 155715728 155625792 155386832 154996912 
1161.919 154476624 153859440 153173056 152428320 151619776 150734864 
1164.812 149768256 148728768 147636288 146508464 145348208 144138336 
1167.705 142848080 141450704 139942608 138350224 136722208 135109104 
1170.598 133545576 132034272 130550416 129055680 127521800 125942480 
1173.491 124337312 122737816 121175336 119664456 118200832 116766960 
1176.384 115344640 113924208 112506208 111096688 109698672 108307056 
1179.277 106910992 105500128 104075560 102652832 101261072 99931848 98687312 
1182.652 97534712 96463552 95453896 94481832 93528792 92581816 91631048 
1186.028 90667000 89678704 88657248 87601696 86523352 85446272 84398256 
1189.403 83404304 82475272 81604608 80771112 79950536 79123464 78283408 
1192.778 77436576 76596256 75774560 74975288 74192616 73414880 72631832 
1196.153 71838944 71040520 70247800 69475072 68733984 68032840 67375504 
1199.529 66763512 66196532 65673916 65193548 64750976 64339904 63954176 
1202.904 63588852 63242376 62915944 62610960 62326920 62059728 61802024 
1206.279 61547832 61294284 61044696 60807908 60594024 60410484 60258768 
1209.654 60134768 60031420 59942444 59865196 59799180 59743816 59694088 
1213.030 59640376 59569796 59473232 59350636 59214552 59086636 58989764 
1216.405 58941640 58946496 58995912 59073992 59167504 59270868 59390408 
1219.780 59538364 59726708 59958800 60227176 60516052 60809544 61098700 
1223.155 61385180 61678156 61989172 62323020 62675492 63033044 63379192 
1226.531 63701676 63996024 64264944 64514584 64750328 64972884 65181308 
1229.906 65375156 65558844 65741532 65934316 66143088 66365584 66588664 
1233.281 66794740 66966072 67093856 67179904 67234440 67269648 67291848 
1236.656 67298080 67277040 67213248 67094596 66917368 66688016 66419988 
1240.032 66127612 65822452 65507480 65177308 64818524 64415804 63955172 
1243.407 63428424 62836976 62192616 61515952 60829596 60154632 59503364 
1246.782 58877244 58267216 57660052 57044064 56414684 55776680 55143112 
1250.157 54531088 53954936 53424540 52944240 52514864 52136504 51810544 
1253.533 51538592 51319752 51147504 51007188 50876636 50732120 50553484 
1256.908 50329004 50059052 49753116 49426452 49094064 48769416 48462640 
1260.283 48181704 47933876 47724468 47555304 47421240 47310200 47203844 
1263.658 47082480 46931248 46745012 46528428 46293304 46053404 45818096 
1267.034 45589608 45363080 45131120 44887968 44633052 44373152 44120040 
1270.409 43888380 43689776 43531368 43413044 43328652 43266816 43215172 
1273.784 43162432 43100224 43025548 42940384 42851404 42766936 42694180 
1277.159 42635584 42587776 42539644 42476248 42382244 42243924 42053300 
1280.535 41808068 41510000 41163612 40773716 40346312 39887008 39402244 
1283.910 38899140 38383984 37863044 37342504 36829408 36334280 35870560 
1287.285 35454752 35103564 34828800 34633832 34512124 34448204 34420656 
1290.660 34407096 34390240 34358072 34305788 34233220 34142632 34036080 
1294.036 33915692 33783660 33644612 33506152 33379144 33275392 33205606 
1297.411 33176922 33190224 33240088 33315246 33401222 33480526 33537112 
1300.786 33558016 33534822 33465456 33354278 33210612 33045470 32870884 
1304.161 32696262 32528318 32372218 32232374 32112412 32015488 31942978 
1307.536 31891984 31855580 31823990 31786020 31733330 31662260 31574950 
1310.912 31478398 31381544 31293366 31220834 31167966 31137068 31129200 
1314.287 31144328 31181564 31237212 31305294 31376880 31442632 31493288 
1317.662 31521826 31523962 31496886 31437964 31344074 31211968 31041252 
1321.037 30835488 30603762 30357734 30109358 29867016 29632258 29400428 
1324.413 29163762 28915146 28652550 28379962 28106414 27842646 27596552 
1327.788 27371524 27166010 26975790 26796860 26628152 26471832 26333876 
1331.163 26221198 26140642 26098204 26099084 26147258 26246012 26396546 
1334.538 26596270 26838238 27111940 27404308 27703972 28004160 28302788 
1337.914 28600666 28897898 29189204 29463436 29707610 29912980 30080556 
1341.289 30221558 30353150 30490860 30645716 30820228 31010682 31208694 
1344.664 31406120 31597398 31780210 31954714 32120832 32277304 32422592 
1348.039 32555674 32677722 32792304 32903016 33010614 33111372 33197880 
1351.415 33261906 33298322 33308018 33295926 33270028 33235938 33194520 
1354.790 33142910 33078294 33003248 32929502 32875604 32861844 32904484 
1358.165 33008288 33165726 33358284 33564136 33762744 33939156 34086968 
1361.540 34204036 34290192 34345632 34372024 34374496 34363632 34353304 
1364.916 34355996 34380308 34428512 34496664 34576024 34656724 34731340 
1368.291 34797100 34856012 34913352 34975692 35050508 35146600 35278296 
1371.666 35464312 35727248 36088840 36559788 37130560 37766992 38418876 
1375.041 39032520 39567716 39999944 40309048 40472320 40458136 40230124 
1378.417 39764368 39060320 38148632 37078844 35908668 34686940 33446956 
1381.792 32216352 31020646 29886714 28842446 27905924 27079600 26348274 
1385.167 25683944 25050814 24416538 23764742 23097814 22436024 21805554 
1388.542 21227418 20712184 20261712 19874866 19548770 19281834 19071112 
1391.918 18911744 18796304 18715798 18661594 18625726 18604248 18595810 
1395.293 18601690 18624206 18664154 18721784 18794954 18879558 18967606 
1398.668 19049058 19113906 19156842 19179594 19190226 19198364 19210486 
1402.043 19227040 19240200 19234624 19189810 19087176 18918250 18690754 
1405.419 18426834 18157892 17913322 17714236 17574306 17502410 17505928 
1408.794 17594664 17778884 18066658 18459642 18950160 19521666 20152474 
1412.169 20822226 21512822 22210026 22901682 23573452 24209196 24793596 
1415.544 25310958 25749508 26098768 26345142 26468240 26441864 26246786 
1418.920 25891148 25423506 24917660 24438760 24027130 23693842 23432636 
1422.295 23231180 23076464 22958830 22873252 22819504 22801276 22824848 
1425.670 22898784 23035514 23251350 23565442 23996628 24555360 25236364 
1429.045 26012324 26841692 27678404 28486126 29247006 29959768 30634340 
1432.421 31283144 31918906 32554030 33201278 33874568 34587112 35344784 
1435.796 36133920 36914820 37632560 38245776 38746056 39158504 39518868 
1439.171 39858384 40198608 40550156 40914404 41285084 41652244 42006212 
1442.546 42341588 42660040 42970820 43289184 43631300 44012924 44445416 
1445.922 44934524 45479328 46072524 46702028 47356056 48029976 48732676 
1449.297 49488644 50329488 51289400 52392648 53645152 55024924 56485052 
1452.672 57970552 59427564 60826736 62164704 63451128 64695864 65885380 
1456.047 66963912 67834664 68415184 68707552 68797608 68797176 68776376 
1459.422 68761664 68761856 68784488 68841096 68945032 69103856 69313272 
1462.798 69550928 69778800 69938360 69959296 69773512 69313968 68522336 
1466.173 67349616 65751164 63711308 61253076 58447428 55386616 52170952 
1469.548 48873744 45499820 42004500 38316268 34411188 30399344 26552028 
1472.923 23188118 20487428 18423308 16830040 15517154 14358307 13300039 
1476.299 12348918 11532862 10869935 10348987 9936353 9590363 9277279 8976698 
1480.156 8679300 8381902 8082008 7777362 7468547 7163287 6876889 6626678 
1484.014 6427588 6283919 6186743 6115195 6046144 5963331 5865791 5768104 
1487.871 5690918 5645465 5621733 5586457 5500410 5345541 5135906 4908309 
1491.728 4699186 4530239 4403530 4310321 4238513 4181468 4140990 4128547 
1495.586 4157215 4230650 4332208 4428066 4480455 4467767 4391748 4272341 
1499.443 4135070 4001620 3884460 3786817 3707274 3645255 3602789 3585015 
1503.301 3597911 3645622 3728662 3841870 3973899 4101553 4189966 4201040 
1507.158 4116605 3952432 3741596 3513225 3288280 3086276 2926795 2825431 
1511.016 2791449 2820395 2895539 2992582 3092816 3187767 3280768 3379967 
1514.873 3487706 3591062 3658153 3647059 3530729 3318796 3057812 2805588 
1518.730 2608708 2494789 2469030 2517984 2608642 2699552 2755135 2766605 
1522.588 2749166 2724892 2706487 2696185 2690350 2684583 2675648 2662246 
1526.445 2642210 2611475 2563410 2494023 2404254 2303379 2205525 2127737 
1530.303 2083754 2081157 2120478 2195834 2295285 2401256 2494822 2561411 
1534.160 2596909 2606875 2600075 2583309 2559911 2531681 2500088 2466330 
1538.017 2432209 2398424 2363375 2323399 2276033 2223376 2171225 2123475 
1541.875 2078094 2027558 1964314 1882841 1783518 1675070 1571937 1488809 
1545.732 1436746 1419925 1437976 1489241 1571870 1682820 1812830 1944177 
1549.590 2053258 2118680 2134563 2112987 2079492 2060882 2078960 2143420 
1553.447 2248454 2371771 2485425 2570743 2627242 2673147 2737262 2851846 
1557.305 3039193 3291018 3528792 3612177 3451234 3120982 2763138 2462532 
1561.162 2234066 2063845 1934725 1834192 1755306 1695227 1652087 1621954 
1565.019 1598275 1574896 1549790 1527544 1517736 1532831 1580051 1655479 
1568.877 1735545 1783019 1766351 1679394 1545700 1401476 1278102 1192273 
1572.734 1148750 1143701 1169249 1215897 1276906 1347728 1423183 1494295 
1576.592 1547961 1572934 1566915 1535857 1491003 1443229 1401409 1370230 
1580.449 1349157 1332439 1312498 1282688 1240020 1186858 1129017 1075004 
1584.307 1032689 1009374 1011168 1041623 1101611 1187223 1289501 1393465 
1588.164 1481528 1539083 1558569 1544237 1509822 1475377 1458023 1469426 
1592.021 1511318 1578022 1659038 1742198 1816889 1872658 1899680 1889231 
1595.879 1836687 1745325 1628240 1507894 1408058 1349324 1341247 1379737 
1599.736 1448016 1522524 1582811 1616466 1623118 1610646 1590593 1570673 
1603.594 1553780 1538617 1524785 1514577 1514444 1531302 1568811 1622885 
1607.451 1682521 1732351 1760329 1762924 1746290 1721007 1697057 1678862 
1611.308 1664726 1650424 1634559 1621854 1624315 1658107 1737973 1871893 
1615.166 2053425 2256181 2434642 2545746 2571743 2531048 2459133 2389162 
1619.023 2338923 2312607 2308276 2322067 2351316 2392960 2441506 2486258 
1622.881 2511485 2504020 2460299 2389995 2309475 2236198 2181914 2150046 
1626.738 2137126 2133697 2129635 2118414 2101600 2086617 2083488 2098437 
1630.596 2132731 2182280 2241494 2304079 2367506 2434108 2511419 2611775 
1634.453 2748232 2926161 3131962 3330816 3483965 3571050 3594603 3569480 
1638.310 3512023 3437541 3359465 3289014 3236902 3210398 3212134 3241509 
1642.168 3296092 3373589 3474546 3603691 3767264 3972026 4221850 4509883 
1646.025 4813853 5096512 5318036 5458768 5526417 5545210 5538061 5521819 
1649.883 5508732 5508900 5538666 5621465 5785934 6045338 6352402 6584626 
1653.740 6635762 6518360 6313368 6087909 5872608 5676247 5496953 5329205 
1657.598 5169905 5019042 4881300 4765209 4680262 4633575 4626810 4653669 
1661.455 4698315 4735696 4739750 4691181 4588534 4446912 4291214 4145439 
1665.312 4028040 3952399 3926853 3954338 4031016 4143667 4267422 4368487 
1669.170 4418392 4406074 4346130 4267389 4198497 4154605 4138047 4143365 
1673.027 4162667 4188929 4216430 4241022 4259793 4271638 4278699 4287031 
1676.885 4305034 4340809 4402024 4491972 4608392 4741291 4875671 4996451 
1680.742 5096043 5178288 5258871 5359932 5502759 5696792 5921007 6122890 
1684.599 6250303 6298004 6299215 6290945 6292121 6306913 6330851 6358320 
1688.457 6388077 6425806 6482977 6571843 6698681 6859654 7043283 7237266 
1692.314 7433559 7631998 7839772 8068337 8325595 8607947 8890348 9133003 
1696.172 9306593 9417641 9503892 9611535 9783013 10048105 10417232 10861408 
1700.029 11304270 11649858 11853843 11944360 11982029 12016467 12075366 
1703.404 12174959 12323863 12525641 12774839 13053715 13333454 13584996 
1706.780 13792423 13956800 14093755 14223392 14365808 14533040 14727142 
1710.155 14940636 15161921 15382565 15601397 15826799 16074289 16360797 
1713.530 16698796 17093094 17542290 18045900 18613068 19266974 20033996 
1716.905 20924124 21900990 22881424 23776816 24546348 25213786 25845008 
1720.281 26510184 27271560 28174326 29246298 30498324 31926468 33518106 
1723.656 35256336 37127492 39120868 41225912 43432596 45737168 48154196 
1727.031 50731304 53551440 56718024 60316248 64364152 68775248 73376592 
1730.406 77961136 82414464 86796080 91396944 96718288 103410616 111995232 
1733.782 122346968 133403480 143676928 152275712 159268560 165240400 
1736.675 170799072 176388048 182258432 188493232 195010016 201609296 
1739.568 208001824 213890544 219033104 223250704 226420400 228485056 
1742.461 229475120 229527280 228845024 227626432 225956688 223781008 
1745.354 220944000 217297216 212787472 207511856 201666992 195483776 
1748.247 189091488 182461536 175424304 167810256 159599840 150998144 
1751.140 142408720 134264304 126852888 120234704 114289872 108807200 
1754.033 103563128 98366872 93075936 87608592 81978528 76306280 70795992 
1757.408 65665828 61056404 56998568 53425068 50209332 47200296 44254632 
1760.784 41278232 38256196 35275704 32487500 30032976 27976808 26295468 
1764.159 24903238 23697726 22588002 21513274 20449952 19408524 18422754 
1767.534 17529144 16751206 16088352 15521927 15026688 14583820 14180700 
1770.909 13804326 13435112 13044633 12609203 12130016 11633113 11155306 
1774.285 10723431 10347392 10018909 9720052 9433387 9151309 8880575 8639820 
1778.142 8446156 8306917 8208478 8119074 7996613 7811298 7561256 7273990 
1781.999 6989742 6741889 6545336 6391573 6256119 6110288 5938172 5742586 
1785.857 5544438 5368687 5234658 5148345 5103821 5089405 5093528 5108983 
1789.714 5130944 5154481 5169066 5157331 5101407 4993669 4845515 4681669 
1793.572 4527895 4397104 4287834 4188929 4088709 3981389 3871656 3771141 
1797.429 3694241 3649632 3635131 3637503 3637269 3618492 3573756 3508415 
1801.286 3434301 3363138 3298964 3238872 3177019 3110437 3041595 2977702 
1805.144 2926161 2891003 2869923 2855781 2840272 2818661 2791215 2762070 
1809.001 2734928 2708354 2674914 2625076 2553078 2463931 2372670 2300348 
1812.859 2264042 2270670 2315538 2385963 2466697 2543879 2609442 2658912 
1816.716 2687783 2688550 2649144 2557178 2406753 2203394 1966477 1723502 
1820.574 1505467 1335962 1226928 1179382 1185794 1233541 1306483 1386916 
1824.431 1453468 1485451 1469193 1403902 1302993 1188884 1088258 1021264 
1828.288 998647 1016448 1057666 1097625 1118254 1117988 1110780 1115032 
1832.146 1140910 1187090 1240818 1284051 1299870 1280694 1230550 1162970 
1836.003 1093905 1035246 991175 959295 934191 912907 896239 887905 891723 
1840.343 909387 940201 983138 1038368 1108155 1194964 1296314 1400445 
1844.200 1487446 1535259 1532200 1481794 1399049 1301930 1204467 1113869 
1848.058 1030397 950794 872732 797904 731254 677954 639427 610957 583053 
1852.397 546890 498754 444389 397458 374277 385486 431586 501740 578939 
1856.737 645068 688275 705433 700786 680277 647324 601733 542842 473345 
1861.077 403660 348212 322646 336275 388173 467739 558369 644603 714924 
1865.416 764478 793257 800759 783564 735435 652567 539890 414373 298673 
1869.756 208396 145648 98651 50366 -13717 -96840 -190876 -278137 -340219 
1874.095 -364487 -348960 -301580 -235452 -162525 -89154 -17096 52885 117111 
1878.435 166762 191192 183800 146112 88974 28363 -23027 -61856 -95249 
1882.775 -135762 -192863 -265819 -341345 -400008 -424471 -410038 -366374 
1886.632 -313997 -271812 -252043 -250487 -251116 -232141 -178423 -90844 
1890.489 14579 115255 191987 233591 237437 204153 133849 24122 -125592 
1894.829 -308500 -508707 -700319 -857159 -962239 -1011430 -1013546 -985744 
1898.686 -946799 -908776 -876504 -848164 -820220 -790818 -760654 -730521 
1902.544 -698202 -656220 -596069 -512248 -409310 -302772 -216344 -171699 
1906.401 -180278 -236943 -322936 -411561 -480178 -518602 -527802 -515557 
1910.259 -488816 -448072 -389547 -311182 -219457 -130495 -66826 -46915 
1914.116 -75108 -137881 -207965 -256547 -264064 -229458 -168553 -106214 
1917.974 -59007 -24187 19085 94375 213833 367777 526752 647391 689536 633388 
1922.795 489002 293733 94309 -68383 -174813 -222206 -218563 -173289 -95415 
1927.135 5102 115288 214098 277321 287101 238696 146841 41353 -42773 -84119 
1931.957 -80442 -52448 -32039 -50360 -123704 -247904 -401730 -559538 -701609 
1936.296 -819029 -913174 -988852 -1049014 -1090330 -1106095 -1089933 
1939.672 -1041081 -966636 -881034 -801038 -743289 -718513 -729528 -771900 
1943.529 -835201 -904544 -961280 -986571 -965512 -893434 -780731 -654632 
1947.386 -551993 -506456 -537995 -641498 -787345 -928615 -1021050 -1034768 
1951.244 -964586 -827562 -658801 -498646 -379119 -322572 -336941 -419473 
1955.101 -559339 -739518 -937971 -1126585 -1280794 -1379331 -1412788 
1958.476 -1385078 -1312805 -1222183 -1141556 -1095883 -1100510 -1157848 
1961.852 -1255355 -1370512 -1476458 -1547977 -1575148 -1572309 -1580926 
1965.227 -1657313 -1857954 -2207337 -2677146 -3177663 -3580080 -3769620 
1968.602 -3684504 -3350216 -2865006 -2372070 -1998743 -1828259 -1867884 
1971.977 -2055864 -2284075 -2448021 -2486009 -2386273 -2180963 -1919184 
1975.353 -1648301 -1394458 -1166142 -965082 -795151 -669619 -603150 -600437 
1979.210 -653607 -743785 -853819 -975463 -1111515 -1268537 -1444261 -1620903 
1983.068 -1767974 -1851190 -1854952 -1785397 -1670780 -1542496 -1420252 
1986.443 -1299030 -1153651 -954238 -692578 -395307 -124135 49239 66173 
1990.300 -91407 -392560 -768857 -1145224 -1477845 -1765004 -2035616 -2320692 
1994.158 -2620502 -2896440 -3081343 -3109406 -2955253 -2652447 -2294787 
1997.533 -2000261 -1881246 -1995247 -2326196 -2788074 -3258176 -3618133 
2000.908 -3773989 -3683945 -3355904 -2844071 -2225138 -1589245 -1022934 
2004.283 -590014 -330551 -249361 -314957 -462073 -615790 -714543 -728271 
2008.141 -668858 -576216 -504636 -496924 -575421 -739352 -975595 -1265696 
2011.998 -1596772 -1960252 -2344124 -2730555 -3097727 -3421361 -3684504 
2015.373 -3879252 -4003072 -4053725 -4027825 -3923616 -3748926 -3533348 
2018.749 -3328778 -3193780 -3184636 -3326739 -3603083 -3953824 -4298409 
2022.124 -4559447 -4691005 -4688285 -4578627 -4400298 -4178447 -3919347 
2025.499 -3613007 -3249955 -2838211 -2405583 -1994225 -1642822 -1366482 
2028.874 -1150280 -959726 -762539 -550603 -352668 -222338 -222967 -392758 
2032.732 -723739 -1157947 -1607600 -1974897 -2179150 -2176216 -1960252 
2036.107 -1564947 -1057542 -532568 -93229 171336 199081 -20807 -443570 
2039.964 -968487 -1472495 -1841292 -2006065 -1963253 -1767347 -1504261 
2043.340 -1254133 -1078762 -1004819 -1034404 -1159071 -1370578 -1662825 
2046.715 -2021039 -2412535 -2783136 -3067229 -3215521 -3210488 -3077461 
2050.090 -2867573 -2642205 -2444858 -2291985 -2175952 -2080399 -1995247 
2053.465 -1927827 -1898203 -1928717 -2027404 -2176974 -2338291 -2464594 
2056.841 -2520962 -2495101 -2399157 -2259222 -2103778 -1951148 -1806647 
2060.216 -1670780 -1545534 -1440694 -1370710 -1345343 -1360669 -1393830 
2063.591 -1411401 -1379694 -1281157 -1123743 -935657 -752418 -603812 -503908 
2067.448 -450753 -434865 -448833 -492423 -569333 -677956 -806528 -930830 
2071.306 -1024686 -1074267 -1088446 -1096841 -1140069 -1248747 -1425007 
2074.681 -1636484 -1825554 -1935117 -1926672 -1798959 -1584953 -1341610 
2078.056 -1124569 -972223 -899320 -897534 -948155 -1031264 -1132633 -1240950 
2081.914 -1344351 -1428145 -1475434 -1474543 -1424545 -1335631 -1225487 
2085.289 -1109698 -994273 -872866 -731943 -561159 -363659 -160272 13651 
2089.146 123342 144256 73431 -71431 -257441 -452507 -632697 -784303 -902858 
2093.486 -986438 -1031561 -1034305 -994703 -922564 -838607 -774281 -760687 
2097.344 -820418 -961644 -1175197 -1437094 -1712861 -1965562 -2156467 
2100.719 -2250850 -2225039 -2071726 -1806086 -1465891 -1108012 -791116 
2104.094 -559902 -433574 -398783 -415931 -434765 -416990 -346013 -233532 
2107.951 -110454 -16102 17693 -23590 -138246 -311348 -519893 -735945 -931094 
2112.291 -1075358 -1141820 -1117101 -1005910 -837681 -658304 -522904 -473492 
2116.148 -524460 -655856 -821708 -965346 -1038966 -1022372 -925308 -780069 
2120.006 -623400 -485407 -378590 -298766 -234062 -175177 -122048 -84881 
2123.863 -77758 -113038 -196804 -327505 -498315 -699194 -916943 -1132831 
2127.721 -1321989 -1457041 -1513507 -1481807 -1372361 -1218351 -1063194 
2131.096 -947890 -894955 -897997 -923622 -924449 -860334 -709317 -479516 
2134.953 -201043 81616 327123 505521 600140 604387 517298 342044 85593 
2139.293 -237141 -604639 -995926 -1394755 -1796022 -2202886 -2617044 
2142.668 -3027614 -3404660 -3699813 -3865164 -3869433 -3712231 -3425569 
2146.043 -3068413 -2702864 -2373718 -2098403 -1865740 -1651074 -1429928 
2149.419 -1191950 -943096 -697441 -467236 -256315 -59835 128380 305338 
2153.276 455168 550738 560028 456031 223148 -145930 -650530 -1283239 
2157.134 -2020808 -2816057 -3585338 -4219302 -4618888 -4724536 -4543676 
2160.509 -4141100 -3615274 -3058543 -2531075 -2057348 -1633084 -1249904 
2163.884 -916183 -662804 -538822 -585878 -815094 -1194792 -1656685 -2123661 
2167.741 -2526661 -2830739 -3032912 -3148651 -3195786 -3179702 -3090851 
2171.117 -2915990 -2649780 -2307509 -1924660 -1555174 -1252316 -1055129 
2174.492 -983695 -1034470 -1189538 -1420417 -1697712 -1988288 -2260574 
2177.867 -2489402 -2663545 -2791728 -2901937 -3033866 -3221243 -3473134 
2181.242 -3765153 -4044796 -4249391 -4330428 -4275968 -4112218 -3893438 
2184.618 -3674976 -3496603 -3366524 -3264392 -3153289 -3000303 -2791037 
2187.993 -2535160 -2262683 -2017147 -1846307 -1791073 -1882731 -2135926 
2191.368 -2544613 -3071671 -3649644 -4189801 -4589939 -4769501 -4688744 
2194.743 -4358771 -3837872 -3215225 -2586841 -2025458 -1574323 -1242338 
2198.119 -1015761 -871907 -792769 -768427 -794787 -868435 -982901 -1130716 
2201.976 -1307817 -1516808 -1768502 -2073540 -2434512 -2836039 -3244167 
2205.351 -3608341 -3876001 -4006158 -3977332 -3795832 -3492593 -3119670 
2208.727 -2733124 -2387195 -2120166 -1946596 -1856601 -1818955 -1794339 
2212.102 -1744609 -1650546 -1518129 -1379199 -1278085 -1256379 -1337745 
2215.477 -1516346 -1756787 -2006131 -2213666 -2341521 -2377013 -2330579 
2218.852 -2230083 -2108526 -1997457 -1922219 -1897576 -1927794 -2002305 
2222.228 -2096524 -2169919 -2174205 -2069649 -1837432 -1493728 -1088645 
2225.603 -700418 -406993 -265918 -296614 -477033 -752153 -1055328 -1335268 
2229.460 -1564485 -1742860 -1887481 -2017411 -2141268 -2251839 -2330415 
2232.835 -2357768 -2323164 -2229061 -2091709 -1934325 -1781239 -1648202 
2236.211 -1542958 -1464471 -1405621 -1355747 -1303324 -1236919 -1147207 
2239.586 -1029148 -883845 -719869 -552258 -400339 -284561 -220186 -216576 
2243.443 -273634 -383257 -529192 -690295 -844461 -969743 -1051857 -1086728 
2247.301 -1082232 -1055328 -1028322 -1020686 -1042007 -1089504 -1149421 
2250.676 -1203118 -1234541 -1236919 -1215212 -1184647 -1162805 -1165581 
2254.051 -1201004 -1267546 -1354888 -1446473 -1524601 -1570559 -1569998 
2257.427 -1515058 -1407371 -1259848 -1095552 -944881 -834738 -783939 -794655 
2261.284 -851438 -925044 -981480 -994174 -949742 -854018 -726055 -595077 
2265.141 -488253 -425001 -413448 -448568 -516120 -596003 -668957 -719538 
2268.999 -741205 -737268 -721060 -710971 -724930 -774546 -859077 -965446 
2272.856 -1070268 -1148793 -1180285 -1153651 -1069441 -936980 -770312 
2276.231 -584058 -393288 -213132 -59537 50068 101998 89669 18124 -94951 
2280.571 -222504 -335187 -412157 -444960 -440095 -414044 -387396 -374882 
2284.428 -381999 -403782 -429039 -444894 -442743 -419506 -379517 -331313 
2288.286 -285587 -252937 -241645 -256249 -295819 -354654 -422088 -484679 
2292.143 -530549 -551166 -544150 -512546 -462900 -401465 -331942 -254593 
2296.001 -169315 -77294 16269 102528 171767 217413 239061 242973 239094 
2300.340 235646 236442 238696 235779 222353 198717 172530 157713 167127 
2304.680 208131 277519 363168 446744 511294 547421 554188 539127 512753 
2309.020 485187 461868 444190 430989 421238 415334 415600 424090 442432 
2313.359 470692 507777 552530 604288 662722 727138 795248 863701 928446 
2317.699 985928 1034516 1073277 1100947 1114666 1110082 1082877 1032822 
2321.556 965969 895774 840595 816859 833789 889831 974238 1070387 1161807 
2325.896 1237495 1291594 1323266 1333869 1325294 1299836 1261586 1219419 
2329.753 1185861 1174232 1193602 1241981 1304655 1358298 1380102 1356303 
2333.611 1289368 1197290 1109551 1055108 1052650 1106162 1203171 1321006 
2337.468 1432823 1518899 1567447 1576193 1550488 1500080 1436447 1370563 
2341.325 1311734 1265408 1231913 1206361 1181342 1149747 1110149 1067099 
2345.183 1029932 1006917 999610 1000773 997219 975865 927749 852347 756744 
2349.522 655720 565933 504128 481638 502171 560757 647822 753359 869179 
2353.862 988817 1103173 1196460 1248394 1238226 1153534 998647 796145 583484 
2358.202 399515 278912 239359 281100 387144 529871 678916 803448 880700 
2362.541 898563 858688 777390 682235 604453 566497 577213 626784 693751 
2366.881 751334 780211 774303 740646 693253 646428 609066 583252 567293 
2371.220 560492 564208 581825 614076 654957 691228 706860 689204 635146 
2375.560 554056 465086 390826 346985 338529 357132 387012 408403 406678 
2379.900 374940 314191 230906 134412 34493 -60299 -141691 -201606 -234823 
2384.239 -238665 -215615 -173355 -122777 -74545 -35518 -7090 14049 33300 
2388.579 53680 73928 87648 86521 64218 19914 -40885 -108235 -169845 -215980 
2393.401 -240718 -241877 -219755 -176137 -113535 -35717 50698 136003 209921 
2397.740 262733 289257 289820 270358 239592 205545 174054 147073 123872 
2402.080 102528 80854 56828 27468 -9774 -57251 -114860 -177959 -236910 
2406.419 -280190 -298269 -288468 -257110 -219159 -192697 -190843 -218000 
2410.277 -266713 -321347 -363030 -377299 -358527 -309427 -238896 -156993 
2414.134 -73054 6792 76778 131131 163447 169314 149062 110085 67930 40458 
2418.956 43010 82511 155194 247681 341050 419016 470327 491656 485618 458751 
2423.778 418319 370596 322746 281067 251792 238995 242177 256201 271518 
2428.117 279210 272712 252422 223447 194076 170939 155923 146510 138721 
2432.457 130435 124635 128280 149161 190794 249007 311836 363135 389798 
2436.797 385055 351893 299635 240122 181546 126623 72768 16368 -43834 
2441.136 -104459 -158186 -196738 -214191 -208528 -181801 -137650 -79779 
2444.994 -11431 63820 140544 209988 262434 289389 288030 262898 226198 
2449.333 192982 175579 179789 202330 232563 256433 261439 240122 190827 
2453.673 117509 28065 -67389 -158186 -233002 -281912 -298368 -280985 -234823 
2458.012 -170143 -100583 -37738 11464 46555 72039 94177 117244 141704 164011 
2462.834 179325 184728 180684 170806 159238 149029 139118 125993 104915 
2467.174 73298 32505 -12226 -54137 -86305 -104558 -107970 -98198 -78884 
2471.513 -54203 -29521 -10304 -2054 -9277 -32735 -68946 -110090 -147057 
2475.853 -172196 -182828 -182828 -180542 -184517 -199321 -223067 -247871 
2479.710 -263435 -261150 -238201 -197930 -148050 -96078 -47379 -3677 35554 
2484.050 70349 98220 114658 114990 98054 67863 33400 4572 -10105 -7156 11663 
2489.354 41784 78634 120392 166928 218076 270159 314323 339259 333920 293401 
2494.176 222386 135506 52818 -7190 -31674 -18223 27203 92950 167756 242675 
2498.998 312831 376366 431321 474937 503365 512886 502038 472217 428700 
2503.337 378290 328084 284747 253217 236807 237370 254179 283918 320955 
2507.677 358359 389599 411056 423725 431287 439015 450259 464953 479316 
2512.016 487907 486348 475236 459480 446777 443792 453211 471620 491224 
2516.356 502470 499252 480278 450724 418253 391224 374145 366584 363234 
2520.696 356270 338662 306100 259019 202529 146576 102064 79760 87515 126623 
2525.517 192882 275398 361609 438452 497096 534117 550440 549544 534681 
2529.857 507114 467275 416329 359520 305470 265551 249239 259715 291213 
2534.197 330969 363632 376665 366119 337203 301690 271485 253483 246786 
2538.536 244067 234851 211910 173226 123740 71641 25149 -9741 -29554 -32867 
2543.358 -17395 19317 78534 157846 249537 340287 415268 462996 478885 466778 
2548.180 436826 400709 366716 337004 308952 278813 245592 213236 188971 
2552.519 180352 190164 213767 240652 258688 259152 240487 208993 176209 
2556.859 154299 150752 167127 199413 240686 283918 324171 358525 384823 
2561.198 401272 405915 398155 379782 356171 335777 326559 334849 361510 
2565.538 402831 450724 496167 532127 554918 565601 568222 568919 572270 
2569.878 581493 596159 613545 629041 638597 640323 636673 633653 639858 
2574.217 663717 709548 774967 850754 923432 978921 1007747 1007946 986027 
2578.557 954214 925425 910416 913438 932829 961353 990112 1009806 1012695 
2582.896 994164 952952 892321 820278 749873 695974 671416 683031 727835 
2587.236 793157 859319 907760 926022 911877 873296 825291 782137 752728 
2591.576 738887 736298 739219 743600 749873 761391 780842 807597 836511 
2595.915 859319 869511 864897 849625 831465 819249 817157 824195 834254 
2600.255 841624 844247 846471 857626 888237 943920 1022393 1112241 1197157 
2604.594 1261885 1296878 1301265 1282323 1251617 1219153 1191476 1169481 
2608.452 1150644 1132040 1113072 1096629 1088490 1094071 1116028 1152106 
2612.309 1195729 1237628 1268797 1283619 1281392 1266538 1245636 1226629 
2616.167 1215166 1213039 1219186 1230284 1243576 1257898 1274879 1296480 
2620.024 1324363 1357035 1389775 1415304 1427604 1423548 1405664 1380501 
2623.882 1357566 1343707 1341679 1348094 1355971 1357533 1348459 1329382 
2627.739 1306051 1286543 1277604 1282456 1299737 1326058 1357201 1390573 
2631.596 1425842 1463641 1503272 1542341 1576792 1602731 1618694 1626743 
2635.454 1631532 1638550 1650690 1666588 1680492 1685315 1675868 1651488 
2639.311 1616932 1581015 1553448 1540912 1545434 1564687 1593586 1626211 
2643.169 1658173 1686945 1710828 1728725 1739670 1742863 1738971 1730455 
2647.026 1721340 1716151 1718047 1727960 1744494 1765186 1788409 1814361 
2650.884 1845472 1884472 1932861 1989045 2048464 2104896 2152244 2187675 
2654.741 2211453 2226806 2237530 2246456 2253917 2258080 2256381 2247522 
2658.598 2232534 2215283 2200863 2194435 2199530 2217514 2247156 2285459 
2662.456 2328896 2372737 2412851 2445104 2466130 2474261 2469796 2455334 
2666.313 2434942 2413717 2396392 2386130 2384897 2392527 2408219 2430143 
2670.171 2456000 2482992 2507652 2526782 2538080 2541013 2537680 2532148 
2674.028 2529515 2533481 2545879 2565143 2587642 2608575 2624242 2633076 
2677.885 2635676 2633976 2630242 2625609 2620275 2612942 2602408 2588009 
2681.743 2569910 2549145 2527149 2506020 2487691 2474161 2467430 2469030 
2685.600 2478860 2495056 2513718 2529515 2537247 2533414 2517017 2490223 
2689.458 2456467 2420281 2384797 2351582 2320501 2290922 2262843 2237330 
2693.315 2216582 2203360 2199897 2206957 2223475 2247156 2274334 2301148 
2697.173 2324032 2339822 2346119 2341921 2327230 2303779 2274301 2242160 
2701.030 2210953 2183446 2162100 2148315 2143253 2147016 2158671 2175953 
2704.887 2194935 2211087 2220012 2219246 2208922 2192304 2173955 2158537 
2708.745 2148714 2144186 2142554 2140590 2137060 2133297 2133131 2141256 
2712.602 2161368 2193869 2236065 2282628 2328396 2369772 2405621 2436807 
2716.460 2464664 2489124 2508619 2520550 2522349 2513985 2497488 2477327 
2720.317 2458033 2443572 2435275 2432443 2432776 2434042 2434408 2433042 
2724.175 2429577 2424212 2417449 2410752 2406987 2410152 2424812 2453968 
2728.032 2497055 2549512 2602942 2648011 2677115 2686716 2678881 2660279 
2731.889 2639777 2625209 2621609 2629876 2647244 2668446 2687583 2699085 
2735.747 2698685 2684116 2655378 2615375 2568977 2523316 2485458 2460166 
2739.604 2448936 2448603 2453035 2454334 2446670 2427478 2397891 2362176 
2743.462 2325998 2294019 2269138 2252817 2245124 2246356 2256481 2275333 
2747.319 2301281 2330661 2358911 2380899 2393593 2396925 2394226 2391261 
2751.177 2393593 2405621 2428344 2459799 2496022 2532881 2566677 2595142 
2755.034 2617342 2633009 2642343 2645577 2643577 2638077 2630943 2624742 
2758.891 2621342 2621475 2625142 2631043 2638010 2645110 2651844 2658445 
2762.749 2665446 2673681 2683749 2696885 2714222 2737095 2766105 2800953 
2766.606 2839639 2878695 2913819 2940939 2957252 2961822 2956318 2943674 
2770.464 2929130 2918088 2916220 2928196 2957085 3002891 3061983 3127390 
2774.321 3189536 3238304 3266346 3270720 3254528 3225653 3195711 3176085 
2778.178 3174916 3195844 3237236 3293488 3356459 3418605 3474312 3520741 
2782.036 3558222 3589725 3619728 3653040 3693807 3744571 3805802 3875768 
2785.893 3951730 4030380 4108778 4184513 4255844 4320595 4376553 4421438 
2789.751 4453439 4473023 4483334 4490432 4501145 4522304 4557896 4608526 
2793.608 4670683 4739281 4808828 4875604 4937766 4995311 5049043 5099294 
2797.466 5146333 5190460 5233115 5276982 5325549 5382039 5447797 5521853 
2801.323 5601225 5682323 5762833 5842719 5924467 6011270 6106189 6210170 
2805.180 6322109 6439459 6559968 6682126 6805463 6929440 7052780 7172685 
2809.038 7285985 7390788 7488638 7584588 7687203 7805024 7943798 8104288 
2812.895 8282162 8470111 8660540 8849327 9036337 9224679 9417675 9616752 
2816.753 9820190 10023589 10222944 10417571 10611539 10813474 11033618 
2820.128 11280329 11557089 11861403 12186239 12522777 12864763 13209274 
2823.503 13558570 13917727 14293036 14689164 15108502 15550705 16014157 
2826.878 16497031 16998430 17519072 18060580 18625692 19216788 19835812 
2830.254 20483712 21160028 21863322 22591632 23343190 24117276 24915518 
2833.629 25742618 26606768 27518210 28490018 29535886 30668936 31902254 
2837.004 33247848 34717160 36322968 38078056 39997656 42098676 44398144 
2840.379 46913788 49661796 52655076 55902984 59410580 63178180 67200408 
2843.755 71466968 75960728 80654440 85513808 90493608 95538776 100592440 
2847.130 105591296 110471680 115173120 119630976 123780192 127554032 
2850.023 130880592 133690480 135918720 137509376 138424416 138644944 
2852.916 138175600 137041456 135289504 132981808 130188736 126990064 
2855.809 123465712 119691736 115744160 111688872 107584800 103483856 
2858.702 99426784 95448984 91580848 87846752 84270264 80870696 77662160 
2862.077 74654752 71853104 69257688 66867156 64679524 62693180 60907244 
2865.453 59319792 57927764 56724480 55701184 54844816 54139484 53566056 
2868.828 53099712 52711972 52370408 52038144 51681208 51267996 50774244 
2872.203 50187016 49504056 48735048 47898392 47020924 46133284 45266428 
2875.578 44449928 43707620 43055620 42502628 42050236 41694772 41430424 
2878.954 41252328 41157092 41143904 41212396 41361900 41589488 41890344 
2882.329 42257436 42683396 43161588 43687176 44257860 44873636 45536728 
2885.704 46250988 47020776 47849228 48737124 49681300 50674444 51706064 
2889.079 52764384 53839660 54925872 56021672 57129768 58255016 59401540 
2892.455 60570904 61762144 62972860 64201288 65446996 66712432 68000408 
2895.830 69313000 70649568 72006456 73377960 74759312 76149144 77551360 
2899.205 78974400 80430080 81930112 83482560 85091720 86756752 88474136 
2902.580 90239760 92051304 93909472 95818048 97782560 99809416 101904336 
2905.956 104071896 106315120 108636368 111038064 113523216 116095472 
2908.849 118759456 121519544 124380272 127344520 130414112 133588344 
2911.742 136863872 140234608 143690800 147218432 150800224 154416208 
2914.635 158042320 161653360 165220912 168710864 172086000 175302048 
2917.528 178309680 181061136 183510096 185618592 187359344 188714320 
2920.421 189672096 190224784 190365664 190089680 189395840 188292560 
2923.314 186798208 184943488 182768240 180313920 177622928 174732048 
2926.207 171670384 168463104 165131296 161695040 158176560 154598784 
2929.100 150986608 147364816 143753632 140169904 136623904 133119944 
2931.993 129657168 126232672 122842576 119484624 116159416 112870560 
2934.886 109626040 106436392 103315528 100278864 97340600 94512440 91800928 
2938.261 89206000 86722120 84340064 82051088 79849448 77735360 75714048 
2941.637 73795048 71987216 70297856 68729680 67280832 65946392 64720520 
2945.012 63598208 62576324 61655200 60837980 60129860 59537224 59065300 
2948.387 58715780 58484464 58358884 58317844 58334856 58378708 58419492 
2951.762 58433972 58405048 58324172 58189812 58002704 57764728 57474984 
2955.138 57129840 56724028 56251192 55705784 55084652 54387236 53615840 
2958.513 52774376 51869868 50909752 49902432 48856836 47780388 46678560 
2961.888 45555200 44411832 43248880 42066408 40865148 39647352 38417032 
2965.263 37180080 35945096 34722256 33523366 32361292 31246756 30187918 
2968.639 29187822 28243522 27346928 26486376 25650656 24830854 24022578 
2972.014 23227686 22452494 21706410 20999022 20338164 19728308 19169170 
2975.389 18656476 18183182 17740294 17319064 16912746 16517133 16130956 
2978.764 15755190 15392246 15044113 14711683 14394680 14091633 13800803 
2982.140 13520969 13251358 12992020 12742765 12503816 12275496 12058299 
2985.515 11854081 11665957 11497545 11352733 11234423 11143986 11081303 
2988.890 11044935 11033618 11046329 11082663 11142320 11224562 11327327 
2992.265 11447874 11583223 11731890 11894331 12073629 12274336 12501906 
2995.641 12759962 13049515 13368169 13710583 14069592 14437084 14806191 
2999.016 15171392 15528898 15876802 16213598 16537268 16845366 17134142 
3002.391 17399070 17636588 17843784 18019614 18164354 18278414 18361122 
3005.766 18409134 18416636 18376884 18283218 18132258 17924888 17666678 
3009.142 17366824 17034680 16679445 16306749 15919385 15517978 15102430 
3012.517 14672919 14231335 13780042 13322281 12860838 12398794 11938604 
3015.892 11483528 11036371 10599927 10175488 9762477 9358153 8959549 8563743 
3019.750 8171100 7785154 7413133 7063994 6745725 6463370 6217430 6003644 
3023.607 5813939 5639355 5472391 5308376 5146937 4991591 4847760 4721058 
3027.464 4614755 4528264 4457256 4394359 4331605 4263507 4188260 4108309 
3031.322 4029478 3957481 3895593 3842806 3794738 3745807 3692069 3633226 
3035.179 3573222 3517768 3471307 3434067 3401172 3364674 3316626 3253026 
3039.037 3176185 3094218 3018139 2957452 2917221 2896373 2889402 2888268 
3042.894 2886500 2880663 2870323 2856849 2842007 2826499 2810257 2793750 
3046.751 2778110 2765638 2758169 2756068 2757235 2756435 2747732 2726526 
3050.609 2691117 2643244 2588009 2531414 2478493 2433109 2397891 2374536 
3054.466 2365474 2372604 2396558 2435341 2483692 2533214 2574776 2601475 
3058.324 2609942 2601208 2579643 2550812 2519683 2489990 2464164 2444571 
3062.181 2433609 2434342 2448270 2474594 2508819 2543313 2569377 2579576 
3066.039 2570876 2544679 2506353 2462332 2419048 2379833 2346119 2317370 
3069.896 2293420 2274367 2261644 2256015 2257713 2265241 2275566 2284726 
3073.753 2288923 2285492 2272968 2250753 2220345 2183945 2145018 2107393 
3077.611 2075098 2050262 2032951 2020701 2009616 1995802 1977461 1955693 
3081.468 1934292 1917652 1908633 1906736 1907867 1906003 1895288 1872991 
3085.326 1840547 1802616 1765552 1735012 1714221 1703543 1701281 1704608 
3089.183 1711028 1717781 1722238 1721007 1710895 1689872 1658705 1621954 
3093.041 1586037 1559200 1546731 1549590 1562891 1579020 1589029 1587200 
3096.898 1572735 1549790 1525649 1506796 1497720 1498817 1507528 1519531 
3100.755 1531435 1540712 1547396 1552084 1555742 1559200 1563357 1568644 
3104.613 1575827 1584806 1593652 1599040 1595947 1579219 1545800 1496157 
3108.470 1435449 1371659 1314625 1272852 1250853 1249025 1263647 1288537 
3112.328 1316686 1342277 1361788 1373621 1378540 1378606 1376778 1375316 
3116.185 1375881 1378507 1381698 1383227 1381199 1375283 1367239 1360026 
3120.042 1357134 1360757 1370064 1381465 1389476 1388312 1374418 1347097 
3123.900 1308809 1264776 1220648 1181841 1152637 1136990 1137123 1155328 
3127.757 1191808 1245071 1310238 1380833 1448215 1503837 1541444 1557006 
3131.615 1549424 1519997 1471953 1410019 1339718 1268299 1203171 1151940 
3135.472 1120745 1111710 1123469 1150279 1184698 1218256 1244373 1259792 
3139.330 1263780 1257599 1243742 1225034 1204832 1186658 1174897 1173036 
3143.187 1183004 1203802 1230716 1256868 1275311 1281658 1275710 1261620 
3147.044 1245968 1235468 1233208 1238558 1247430 1254940 1257765 1255871 
3150.902 1252681 1253511 1262384 1280794 1306616 1334932 1360458 1379005 
3154.759 1388944 1391437 1388745 1383426 1376446 1367571 1355572 1339452 
3158.617 1319511 1297410 1276407 1259759 1250188 1248527 1253611 1262450 
3162.474 1270891 1275543 1274314 1267767 1258496 1250953 1249125 1255339 
3166.332 1269263 1287939 1306317 1319544 1324164 1318913 1304788 1283851 
3170.189 1258695 1231547 1203902 1177654 1155029 1138618 1131044 1133070 
3174.046 1142903 1156225 1167621 1171973 1167355 1155627 1142438 1135163 
3177.904 1139648 1158485 1190014 1228125 1264776 1293123 1307746 1307513 
3181.761 1293755 1270725 1243609 1217326 1196526 1183867 1180346 1184499 
3185.619 1193635 1204268 1213405 1220050 1225068 1230883 1240220 1254243 
3189.476 1271788 1289999 1304522 1311767 1310371 1300767 1285014 1264909 
3193.333 1241183 1213870 1182439 1148020 1114434 1087461 1073908 1078559 
3197.191 1102674 1143435 1194533 1247929 1296878 1336162 1362718 1374418 
3201.048 1369798 1347861 1309208 1257765 1201211 1149249 1112175 1096662 
3204.906 1103073 1125562 1153767 1177189 1187987 1185097 1172903 1159647 
3208.763 1152870 1157588 1173967 1198387 1225500 1250620 1270791 1285048 
3212.621 1293655 1297178 1296214 1290996 1283220 1275311 1270326 1271257 
3216.478 1279531 1294519 1313628 1333270 1349955 1361090 1364713 1359926 
3220.335 1345501 1321040 1286776 1245237 1201144 1161940 1134864 1125363 
3224.193 1135329 1161508 1196892 1231879 1257765 1268930 1262882 1241017 
3228.050 1207424 1167056 1124964 1085733 1052883 1029102 1016182 1013990 
3231.908 1021297 1035280 1052750 1070454 1085966 1097957 1105896 1110149 
3235.765 1111344 1110381 1108654 1107491 1108255 1111278 1115663 1119051 
3239.623 1119018 1113603 1103272 1091247 1082711 1083209 1095831 1120147 
3243.480 1151209 1181575 1203138 1211145 1205198 1189682 1171209 1156990 
3247.337 1151375 1155129 1165262 1177322 1186625 1190147 1187389 1180412 
3251.195 1172771 1167654 1167089 1171076 1176691 1179216 1173435 1155727 
3255.052 1125596 1086796 1046639 1014489 998083 1001204 1021762 1053448 
3258.910 1086597 1112706 1127057 1129682 1124898 1118320 1114799 1116693 
3262.767 1123802 1134665 1148186 1164265 1183236 1203670 1221811 1231248 
3266.625 1225134 1199184 1155229 1100914 1049595 1014323 1003695 1018806 
3270.482 1052717 1092676 1125728 1143502 1144099 1132871 1117623 1106262 
3274.339 1102940 1106827 1113969 1119483 1121078 1119084 1116527 1117124 
3278.197 1123204 1134831 1149149 1162637 1172106 1175993 1175661 1174565 
3282.054 1176957 1186924 1206494 1234936 1268598 1301797 1327221 1339718 
3285.912 1336328 1318248 1289999 1258662 1230750 1210913 1200613 1198187 
3289.769 1200679 1206029 1213571 1225101 1242679 1267634 1298075 1329548 
3293.626 1355971 1371128 1371227 1355705 1326723 1288969 1247464 1207590 
3297.484 1174133 1152139 1146060 1158883 1191443 1241050 1301797 1364846 
3301.341 1421886 1466035 1493996 1506032 1504170 1490804 1467199 1433455 
3305.199 1390307 1339718 1286510 1237362 1198819 1175063 1166259 1168618 
3309.056 1175794 1182472 1185927 1186459 1186625 1189084 1194699 1201510 
3312.914 1206726 1208055 1205730 1202673 1202706 1209252 1222310 1238924 
3316.771 1253877 1262617 1263348 1258330 1252648 1251651 1258795 1273317 
3320.628 1291495 1307846 1318082 1321073 1319145 1316487 1317484 1324131 
3324.486 1335098 1346365 1353445 1352681 1342743 1325294 1304024 1283419 
3328.343 1267269 1257433 1254309 1256336 1260855 1265208 1267402 1266704 
3332.201 1264012 1260756 1258363 1257433 1256170 1251418 1239555 1218256 
3336.058 1188353 1153933 1122107 1100847 1095931 1109285 1138718 1178618 
3339.916 1222077 1263647 1300135 1330678 1356370 1377975 1395891 1409221 
3343.773 1416933 1417997 1412047 1399348 1379770 1353113 1318281 1275477 
3347.630 1226430 1176026 1130811 1099054 1087627 1100050 1135329 1187655 
3351.488 1249457 1310970 1364114 1402506 1422119 1421454 1401143 1364380 
3355.345 1316054 1263015 1212641 1170976 1142073 1126426 1122074 1125263 
3359.203 1132738 1142704 1156093 1174531 1200447 1234538 1275477 1319644 
3363.060 1362585 1400213 1429698 1450243 1462644 1468728 1470656 1470124 
3366.917 1468395 1465569 1461148 1453900 1442198 1424546 1400445 1370430 
3370.775 1336195 1300302 1265076 1232345 1202640 1175893 1152172 1131974 
3374.632 1117158 1110149 1113005 1126559 1150013 1180977 1216495 1254276 
3378.490 1293123 1332572 1372923 1413376 1451972 1485950 1512615 1530504 
3382.347 1539581 1541942 1539947 1535558 1529506 1521559 1510820 1497021 
3386.205 1480564 1462345 1443395 1424280 1404966 1386385 1370230 1360458 
3390.062 1361289 1376313 1406030 1445722 1487213 1519531 1534128 1527145 
3393.919 1501144 1463209 1423548 1390872 1370529 1364015 1370230 1387083 
3397.777 1413011 1446919 1487712 1532732 1577723 1617231 1646632 1664526 
3401.634 1672442 1675369 1678097 1683253 1689739 1693098 1687776 1669981 
3405.492 1640146 1603396 1567048 1539149 1524984 1525849 1539748 1562426 
3409.349 1589163 1616233 1640512 1659570 1671345 1674205 1667786 1653816 
3413.207 1635723 1618528 1606722 1602665 1606988 1617597 1632497 1649725 
3417.064 1668351 1687577 1705273 1717016 1716749 1697988 1658040 1599139 
3420.921 1529839 1462012 1408390 1376812 1368469 1378208 1397520 1417631 
3424.779 1432624 1440636 1443362 1443328 1442730 1441666 1439073 1434419 
3428.636 1428967 1425543 1428236 1440436 1462577 1492433 1524951 1554545 
3432.494 1577157 1591324 1598740 1603330 1609682 1621588 1642042 1671910 
3436.351 1710196 1753908 1798789 1839449 1870795 1889730 1896053 1892758 
3440.208 1885304 1880212 1881910 1891860 1907668 1924541 1937587 1943378 
3444.066 1941548 1934292 1924308 1913991 1903341 1890695 1873790 1851927 
3447.923 1827038 1803414 1787045 1782786 1793399 1818121 1853857 1894722 
3451.781 1934292 1967043 1989244 1999064 1997566 1988079 1975431 1965079 
3455.638 1962816 1972435 1995535 2031187 2076429 2126438 2176086 2221178 
3459.496 2258580 2286492 2304612 2313539 2314738 2309609 2299948 2287191 
3463.353 2271869 2253983 2233400 2209921 2184811 2160069 2138658 2123275 
3467.210 2115384 2114052 2117148 2121311 2124274 2125606 2128037 2135528 
3471.068 2152077 2179483 2216315 2258013 2297417 2326964 2341088 2336358 
3474.925 2313106 2274667 2227605 2179450 2139457 2115950 2115184 2139857 
3478.783 2187508 2250619 2317536 2375236 2413784 2427511 2417449 2390028 
3482.640 2353581 2315072 2278264 2243125 2207590 2170059 2130634 2091811 
3486.498 2057919 2032985 2019170 2015974 2020734 2028923 2035714 2037379 
3490.355 2030687 2013710 1986581 1950967 1911395 1873956 1846104 1833460 
3494.212 1838451 1859181 1889264 1920347 1944876 1958788 1962150 1959121 
3498.070 1954229 1952098 1954695 1962183 1974233 1990842 2013244 2042805 
3501.927 2079492 2120079 2157805 2184079 2191471 2176386 2140756 2091312 
3505.785 2037013 1986382 1946340 1919782 1906170 1901477 1899747 1893258 
3509.642 1875687 1843342 1796926 1742631 1689805 1650457 1634326 1646366 
3513.500 1684550 1740701 1802383 1856752 1896486 1919981 1932495 1941514 
3517.357 1955027 1976895 2006820 2041207 2076263 2110689 2144852 2180549 
3521.214 2218247 2254583 2283194 2295452 2285192 2251718 2200963 2143020 
3525.072 2087949 2043171 2010348 1986615 1966344 1945642 1923509 1902742 
3528.929 1887600 1881876 1887068 1901311 1921612 1944277 1967575 1990742 
3532.787 2014642 2039875 2066342 2092410 2115251 2131666 2138425 2133264 
3536.644 2115251 2084919 2044503 1998498 1952930 1914956 1891228 1886203 
3540.501 1900679 1932062 1974399 2021666 2069638 2117148 2165697 2218413 
3544.359 2276299 2336424 2391361 2430810 2445438 2431043 2390494 2332294 
3548.216 2268438 2210887 2167395 2142121 2134496 2140190 2151678 2160902 
3552.074 2160602 2147149 2121344 2089014 2057919 2034849 2023331 2022432 
3555.931 2026327 2026793 2016240 1990775 1952598 1909531 1872525 1852759 
3559.789 1856120 1882009 1923010 1968940 2010082 2041207 2063179 2082389 
3563.646 2108358 2150679 2215982 2305578 2412351 2519550 2605375 2647844 
3567.503 2635543 2573210 2478260 2373303 2277265 2203527 2157472 2138159 
3571.361 2139391 2152743 2169726 2183945 2192937 2197399 2199431 2200430 
3575.218 2199464 2193769 2180016 2157006 2127037 2096306 2073167 2064910 
3579.076 2075198 2102132 2139124 2176419 2204892 2218713 2217214 2204692 
3582.933 2188574 2178317 2182081 2205092 2247955 2306411 2369505 2421214 
3586.791 2444405 2426811 2367906 2278564 2176786 2078727 1993971 1927037 
3590.648 1878682 1848866 1838983 1851095 1887001 1945242 2019403 2096639 
3594.505 2160968 2198865 2203127 2175953 2126904 2069937 2018171 1981688 
3598.363 1966910 1975864 2008384 2061415 2129468 2203094 2269804 2316870 
3602.220 2333460 2315471 2266873 2199930 2130833 2077395 2054257 2068240 
3606.078 2117215 2189573 2268905 2337057 2381366 2398591 2393926 2376168 
3609.935 2353614 2331694 2312440 2296751 2286158 2282827 2289123 2305445 
3613.792 2329262 2355247 2377334 2390161 2389662 2373703 2341455 2294019 
3617.650 2235032 2171724 2114352 2072667 2052925 2054357 2070470 2091012 
3621.507 2106927 2112620 2105961 2088249 2062347 2031320 1997599 1963015 
3625.365 1929666 1901644 1887467 1900080 1955926 2067574 2231069 2415216 
3629.222 2569843 2657678 2671280 2627909 2551112 2461432 2372504 2291221 
3633.080 2220811 2161468 2112154 2071968 2040508 2017771 2003857 1998132 
3636.937 1999796 2007419 2019868 2036114 2054423 2073067 2089247 2100168 
3640.794 2104396 2102399 2097404 2094974 2100401 2116816 2144086 2178884 
3644.652 2217048 2255116 2292720 2334093 2387596 2462632 2563777 2684749 
3648.509 2806422 2900943 2941406 2915420 2828966 2702920 2561144 2423446 
3652.367 2300848 2197666 2115450 2055322 2017438 2001560 2004290 2018038 
3656.224 2031952 2036646 2027392 2005854 1976562 1944876 1914157 1886169 
3660.082 1861644 1841845 1828735 1825308 1834025 1855088 1884971 1917419 
3663.939 1944577 1960153 1961917 1952797 1940017 1932661 1940250 1969606 
3667.796 2023064 2096539 2178984 2252984 2299682 2309575 2287058 2248121 
3671.654 2211220 2192238 2201995 2247189 2328962 2439240 2553712 2630976 
3675.511 2633643 2554311 2421780 2274101 2139990 2032818 1954495 1902609 
3679.369 1872093 1858117 1856120 1862942 1875953 1892226 1908732 1923043 
3683.226 1934192 1943678 1957191 1982121 2026693 2097171 2196134 2320601 
3687.083 2460199 2598309 2714523 2790081 2815593 2792749 2730427 2638443 
3690.941 2525882 2400456 2270836 2147016 2038910 1954528 1898848 1872126 
3694.798 1870163 1885038 1906503 1924774 1932229 1927037 1911628 1893391 
3698.656 1880212 1880545 1900413 1942014 2001960 2071669 2139391 2193136 
3702.513 2226406 2238296 2232235 2213351 2186343 2154741 2121144 2089314 
3706.371 2063612 2050162 2055921 2086051 2142521 2221844 2315138 2407486 
3710.228 2481892 2523949 2526016 2489724 2424679 2344253 2260045 2180316 
3714.085 2110789 2054423 2013477 1988945 1980723 1986248 2001594 2021333 
3717.943 2041174 2058718 2075664 2096738 2127404 2171324 2227972 2292354 
3721.800 2354847 2404788 2434642 2441472 2427878 2399823 2363575 2323632 
3725.658 2281828 2236797 2186610 2130001 2068006 2003591 1941681 1887600 
3729.515 1845904 1821082 1816290 1832595 1868998 1922610 1989677 2067873 
3733.373 2156440 2254783 2359044 2460232 2543646 2595808 2612375 2600408 
3737.230 2573710 2544846 2521050 2502287 2484258 2460699 2427278 2383731 
3741.087 2334826 2288856 2255982 2245790 2262443 2300548 2341155 2358545 
3744.945 2336525 2279630 2205958 2135329 2081557 2054723 2062047 2107759 
3748.802 2190339 2300215 2418148 2517750 2576176 2582309 2540380 2466564 
3752.660 2381499 2302580 2238896 2192804 2162234 2142587 2129768 2121044 
3756.517 2116083 2116549 2125373 2144385 2173389 2208622 2243358 2270070 
3760.375 2283294 2282095 2269504 2250952 2232901 2219845 2213917 2214250 
3764.232 2216648 2214683 2202095 2176619 2141655 2106094 2080891 2076895 
3768.089 2101533 2155274 2229903 2308576 2371804 2403821 2400623 2368206 
3771.947 2318802 2263709 2211087 2164764 2124540 2088615 2055322 2025062 
3775.804 2001094 1988079 1990709 2012346 2052293 2105462 2161501 2208489 
3779.662 2236331 2240994 2225973 2198998 2169327 2144152 2127970 2122509 
3783.519 2125473 2131966 2136560 2134163 2123175 2105029 2084087 2065310 
3787.376 2052659 2047566 2049829 2057686 2068406 2079692 2089880 2097937 
3791.234 2103065 2104796 2103963 2102099 2103198 2112987 2137360 2180649 
3795.091 2242826 2317004 2390161 2447870 2481426 2492256 2490923 2493823 
3798.949 2517417 2573543 2665946 2783545 2899509 2975701 2985275 2927429 
3802.806 2825331 2706954 2594975 2503687 2440140 2407053 2403222 2421647 
3806.664 2447837 2464631 2458866 2427111 2374936 2312307 2249887 2195634 
3810.521 2154408 2127404 2112987 2108492 2112354 2125939 2154142 2204060 
3814.378 2281295 2385364 2505020 2619375 2707321 2760270 2784412 2795084 
3818.236 2806222 2827099 2857882 2889902 2905012 2883732 2817427 2716923 
3822.093 2606242 2507486 2432842 2384398 2359744 2354381 2364408 2384997 
3825.951 2410485 2435008 2452702 2460666 2459866 2454768 2451902 2458000 
3829.808 2478027 2512751 2559111 2608875 2652678 2682582 2694518 2688683 
3833.666 2667846 2635810 2596175 2553545 2514518 2488124 2485958 2516751 
3837.523 2582976 2675314 2774975 2858383 2907014 2914519 2885499 2831768 
3841.380 2767373 2704320 2649411 2604842 2569010 2538713 2511518 2487024 
3845.238 2466664 2453268 2449170 2455801 2472728 2498388 2529448 2561811 
3849.095 2592275 2618675 2642110 2666813 2701119 2755635 2839072 2949979 
3852.953 3067689 3156927 3188501 3160231 3090914 3003458 2913018 2827499 
3856.810 2748466 2674447 2604009 2537347 2477227 2428877 2398491 2390894 
3860.667 2408319 2448570 2505686 2570643 2635076 2691517 2733261 2755602 
3864.525 2754068 2728460 2683382 2630009 2582442 2554711 2559377 2604142 
3868.382 2687150 2791649 2887267 2937870 2923859 2853013 2752967 2653145 
3872.240 2573143 2522549 2499021 2491656 2484625 2465431 2428811 2379433 
3876.097 2326597 2281795 2255615 2256581 2292154 2366107 2477127 2613308 
3879.955 2753034 2868856 2937736 2951414 2917688 2854447 2781111 2715623 
3883.812 2669680 2647210 2643077 2643777 2633543 2601942 2550545 2489524 
3887.669 2433242 2393893 2381865 2403821 2461665 2549612 2652245 2747365 
3891.527 2810491 2825231 2789081 2712222 2611175 2504753 2409219 2335991 
3895.384 2292221 2280230 2298816 2343220 2406420 2480193 2555111 2623309 
3899.242 2679582 2723458 2758569 2791515 2828966 2874359 2926061 2976768 
3903.099 3015770 3031986 3018773 2977602 2917088 2848577 2781645 2721758 
3906.957 2669580 2623475 2581509 2542280 2506320 2474761 2448337 2427011 
3910.814 2409052 2392993 2378501 2368173 2367040 2381899 2418082 2477960 
3914.671 2558278 2651378 2743931 2821596 2873792 2895306 2888268 2858650 
3918.529 2814192 2760703 2702453 2643310 2587275 2539380 2505120 2488324 
3922.386 2490390 2509385 2540347 2574876 2605542 2627042 2638576 2643110 
3926.244 2646511 2654311 2669747 2693751 2724825 2759803 2795184 2827466 
3930.101 2854814 2876160 2891737 2900910 2902611 2895039 2876894 2848043 
3933.958 2810624 2769073 2729026 2695818 2673147 2662212 2660712 2664012 
3937.816 2667513 2667346 2663313 2657978 2655945 2661946 2677881 2702320 
3941.673 2729860 2753001 2764871 2761604 2744131 2717223 2687116 2659845 
3945.531 2640143 2631143 2634843 2652278 2683149 2725125 2774308 2824898 
3949.388 2870190 2904612 2923793 2926094 2912384 2885433 2849044 2808023 
3953.246 2767072 2730293 2701253 2681682 2671614 2668880 2669380 2668980 
3957.103 2663713 2651778 2633976 2613342 2594075 2580209 2574510 2578209 
3960.960 2590575 2609375 2631409 2652811 2669813 2679448 2680182 2672580 
3964.818 2659945 2647144 2639843 2642343 2655978 2678748 2705387 2729993 
3968.675 2747565 2756802 2760070 2761704 2766672 2777643 2794217 2813059 
3972.533 2829400 2839205 2839772 2831101 2814426 2792149 2766772 2741263 
3976.390 2719157 2703920 2698552 2704153 2718090 2734495 2744764 2741730 
3980.248 2721224 2685183 2641410 2601442 2576276 2572110 2588909 2620409 
3984.105 2656778 2687950 2707187 2712222 2704987 2689550 2671147 2654578 
3987.962 2643410 2640910 2649244 2668913 2698152 2732861 2766806 2793750 
3991.820 2810090 2815527 2814159 2812392 2816394 2829533 2850511 2874059 
3995.677 2893138 2901610 2896673 2879762 2855648 2830434 2809790 2797285 
3999.535 2794183 2799419 2810391 
##END=
