##TITLE=drugomas_5 Sep 23 14:48:50 2026 (GMT+02:00)
##JCAMP-DX=5.01  $$ Nicolet v. 1
##DATATYPE=INFRARED SPECTRUM
##ORIGIN=Vojna akademija
##OWNER=Nicolet
##LONGDATE=2026/09/23
##TIME=14:49:23
##SPECTROMETER/DATA SYSTEM=Nicolet iS20
##DATA PROCESSING=
Ratio against background
%Transmittance->Absorbance
Truncated
ElementMultiply or ElementDivide
##COMMENTS=
Number of sample scans: 8
Collection length: 11,90 sec
Sample gain: 8,0
Background collected on: Wed Sep 23 14:48:02 2026 (GMT+02:00);
Number of background scans: 8
Background gain: 8,0
Sample spacing:  1,000
Number of scan points: 12415
Resolution points: 8286
Number of FFT points: 65536
Apodization: N-B strong;
Phase correction: Mertz;
Laser frequency: 15798,00 cm-1
Number of rejected sample scans: 0
Number of rejected background scans: 0
Bench serial number: BER2010005;
##RESOLUTION= 4,000
##XUNITS=1/CM
##YUNITS=ABSORBANCE
##FIRSTX=400.156891
##LASTX=4000.123047
##FIRSTY=0.016178
##MAXX=4000.123047
##MINX=400.156891
##MAXY=0.210366
##MINY=-0.004400
##XFACTOR=1.000000
##YFACTOR=1.000000E-009
##NPOINTS=7468
##DELTAX=0.482117
##ZPD=6100
##XYDATA=(X++(Y..Y))
400.157 16177623 19120380 21844228 24084318 25584052 26217116 26038744 
403.532 25255468 24163234 23052704 22158836 21586742 21309436 21218718 
406.907 21210648 21251776 21405390 21788482 22509372 23572088 24835450 
410.281 26020660 26820156 27011296 26537938 25560822 24435290 23644296 
413.656 23606020 24569172 26527054 29267848 32432944 35617140 38454352 
417.031 40593852 41787240 41952344 41273056 40144348 38998880 38069336 
420.406 37335248 36644932 35851160 34884628 33747664 32508176 31270184 
423.781 30165294 29304782 28751522 28507390 28516234 28686460 28916916 
427.155 29127336 29271250 29353912 29430316 29592918 29932682 30494840 
430.530 31245864 32065928 32776150 33187006 33184898 32766004 32054904 
433.905 31251848 30607318 30347748 30605398 31383254 32536638 33828252 
437.280 34996236 35860120 36354636 36534088 36539564 36563248 36797600 
440.655 37365580 38283768 39422812 40540408 41314856 41470520 40870720 
444.030 39548224 37677476 35501236 33271312 31182918 29388764 27991438 
447.404 27041938 26546604 26462078 26703512 27149644 27668940 28140492 
450.779 28474698 28645898 28704832 28773368 28992288 29477586 30271220 
454.154 31335068 32565710 33835056 35024432 36025580 36753532 37148316 
457.529 37179504 36863204 36269696 35513104 34712136 33974840 33376462 
460.904 32951020 32694940 32564924 32490216 32386318 32188910 31865988 
464.278 31421830 30886786 30300104 29701934 29123650 28591360 28129214 
467.653 27760906 27515742 27424778 27516834 27813784 28316900 28998982 
471.028 29786490 30568246 31200078 31546232 31536006 31196944 30656100 
474.403 30085316 29658970 29488720 29598452 29920470 30312394 30597006 
477.778 30616952 30302872 29690224 28906682 28114580 27474370 27092720 
481.152 27001036 27156804 27462650 27802234 28064034 28176376 28111788 
484.527 27885644 27543912 27150208 26765848 26429398 26153486 25924420 
487.902 25712384 25487380 25236682 24976722 24754800 24630502 24654840 
491.277 24841590 25156026 25508954 25786322 25892802 25778058 25457514 
494.652 24996796 24489448 24018584 23638978 23368750 23193572 23086178 
498.027 23024996 23007038 23047742 23167008 23373260 23648984 23947364 
501.401 24204816 24356080 24365578 24237888 24018726 23773072 23570760 
504.776 23468588 23496952 23662140 23943618 24300992 24676478 25010764 
508.151 25255784 25381594 25383492 25276996 25089778 24850536 24585338 
511.526 24314870 24054514 23821616 23639294 23534030 23535148 23660462 
514.901 23905770 24231862 24569418 24829908 24931802 24836572 24563632 
518.276 24189262 23815210 23543544 23434874 23495798 23686598 23945788 
521.650 24220126 24478898 24720214 24954262 25180780 25370848 25459622 
525.025 25363576 25021576 24429366 23664696 22864696 22187814 21741696 
528.400 21553036 21558746 21640164 21659528 21514004 21178362 20712950 
531.775 20242168 19898138 19785176 19937616 20320040 20844228 21409114 
535.150 21927896 22346436 22648002 22837106 22923898 22915340 22819156 
538.524 22652506 22448062 22255014 22121948 22080320 22133348 22254770 
541.899 22401486 22531916 22626850 22693490 22757070 22841996 22953520 
545.274 23068358 23142510 23125526 22986638 22726972 22380518 21997252 
548.649 21629750 21319040 21086770 20941752 20884244 20910528 21011436 
552.024 21167890 21346602 21498546 21571560 21527270 21356174 21087258 
555.398 20783086 20522964 20371708 20367126 20507158 20755384 21054666 
558.773 21349144 21602100 21798272 21943020 22050340 22132304 22190254 
562.148 22212748 22178120 22064458 21854856 21549276 21168654 20760980 
565.523 20394940 20147370 20091530 20272406 20694670 21316570 22062402 
568.898 22835358 23543718 24127224 24558618 24844608 25010062 25084758 
572.273 25091710 25048006 24971562 24886816 24829872 24843834 24963106 
575.647 25201250 25537944 25922802 26283958 26552696 26683570 26659470 
579.022 26493948 26224366 25904688 25589076 25325816 25146546 25061450 
582.397 25060642 25119338 25206340 25287884 25336458 25336246 25283036 
585.772 25183588 25051902 24903484 24752414 24610760 24490746 24404060 
589.147 24364492 24384328 24471256 24625628 24837344 25087602 25349772 
592.521 25596246 25800948 25939296 25990548 25934092 25752320 25436680 
595.896 24992374 24444088 23830506 23201820 22605104 22075998 21637066 
599.271 21295168 21045486 20875762 20770816 20716216 20698318 20706798 
602.646 20732272 20766470 20802654 20832028 20845238 20830706 20775544 
606.021 20668536 20503822 20285390 20026468 19750050 19480390 19234832 
609.396 19019112 18826442 18642432 18454526 18260790 18075260 17925854 
612.770 17844510 17857076 17972750 18179900 18443982 18716212 18946630 
616.145 19089288 19116466 19022366 18822912 18552100 18253084 17971784 
619.520 17742296 17583070 17490750 17443630 17406900 17345512 17237798 
622.895 17082342 16900274 16728375 16607489 16564047 16600467 16690154 
626.270 16787332 16835930 16788916 16623154 16342975 15980294 15583674 
629.644 15213048 14922838 14752199 14721726 14827893 15046068 15333889 
633.019 15642270 15918870 16118232 16213048 16197503 16090862 15934302 
636.394 15786801 15709428 15753265 15948121 16289514 16736846 17215216 
639.769 17637520 17914392 17981868 17817514 17445908 16931626 16359903 
643.144 15822468 15391868 15114369 15010670 15080509 15310103 15677994 
646.519 16158743 16715840 17301204 17858318 18324932 18650906 18811424 
649.893 18813258 18691238 18496256 18282562 18088110 17934488 17823728 
653.268 17746610 17688664 17636762 17582830 17523694 17459738 17397278 
656.643 17346892 17323132 17339618 17402588 17504480 17619438 17707956 
660.018 17730356 17658570 17491854 17259174 17016626 16827628 16744388 
663.393 16793668 16969352 17239384 17558884 17887182 18186016 18420680 
666.767 18556042 18559292 18425174 18204086 17999134 17898094 17928928 
670.142 18071770 18287710 18540170 18801562 19061174 19325548 19621110 
673.517 19983722 20445922 21017836 21677744 22368552 23016822 23551694 
676.892 23928772 24147086 24247664 24299100 24368906 24513042 24758202 
680.267 25100730 25512362 25949990 26368942 26726592 26993984 27158568 
683.642 27228554 27231658 27210844 27212996 27270784 27398874 27589702 
687.016 27822016 28070184 28316688 28556610 28793512 29030792 29263028 
690.391 29473790 29644248 29764666 29846430 29922460 30040576 30242478 
693.766 30545884 30934780 31364556 31777534 32121972 32374788 32542530 
697.141 32654040 32740992 32824892 32908808 32984122 33043184 33092990 
700.516 33160612 33290632 33527698 33902508 34419256 35052660 35754372 
703.890 36466444 37141892 37750512 38285504 38758772 39195056 39622704 
707.265 40065528 40539316 41048768 41589084 42149936 42723612 43309724 
710.640 43918696 44567584 45273892 46044712 46872188 47735044 48611332 
714.015 49493880 50404464 51392776 52525152 53860628 55421928 57182148 
717.390 59063708 60967368 62789960 64461464 65958500 67293632 68489392 
720.765 69548952 70437800 71092888 71442864 71438488 71075168 70392952 
724.139 69464840 68368648 67176656 65937712 64675680 63398056 62102312 
727.514 60785456 59448040 58097380 56746604 55414476 54118952 52874996 
730.889 51689792 50560296 49475572 48421448 47387392 46369612 45372828 
734.264 44407132 43482696 42605428 41776440 40994768 40260188 39574468 
737.639 38938856 38347756 37781956 37208740 36587760 35881032 35069688 
741.013 34162312 33197236 32226950 31306826 30477746 29757428 29146432 
744.388 28636624 28223188 27908574 27700088 27599448 27591540 27641256 
747.763 27694438 27689740 27580100 27341670 26981996 26531704 26035930 
751.138 25538120 25070296 24654244 24302010 24019216 23806706 23658396 
754.513 23556136 23467854 23354974 23177144 22908354 22547830 22123238 
757.888 21685094 21291686 20998952 20843394 20837450 20970402 21214894 
761.262 21534268 21890294 22250376 22584406 22866128 23074332 23190250 
764.637 23201820 23103998 22900252 22601928 22229452 21813532 21390284 
768.012 21000240 20679344 20448040 20306396 20230850 20182358 20112838 
771.387 19983098 19773282 19486560 19146038 18784818 18435926 18121584 
774.762 17852278 17630378 17454876 17326272 17246796 17218250 17236868 
778.136 17291790 17366136 17439424 17495960 17527248 17531734 17511586 
781.511 17467018 17393208 17282378 17128628 16933932 16711019 16482474 
784.886 16271831 16095504 15957814 15850648 15759485 15671743 15584052 
788.261 15503830 15443227 15409994 15399043 15390117 15353627 15260715 
791.636 15098862 14879392 14639402 14428384 14297077 14280469 14385227 
795.010 14587931 14841882 15093271 15289750 15398012 15407934 15332551 
798.385 15202514 15057079 14934361 14858614 14836704 14857139 14897428 
801.760 14931514 14941528 14926095 14901886 14897531 14943105 15059755 
805.135 15249836 15496963 15768213 16028939 16249232 16413750 16523533 
808.510 16592342 16640402 16687227 16749173 16835136 16946922 17079756 
811.885 17224284 17367860 17496856 17600978 17675168 17721656 17747544 
815.259 17762490 17772500 17777884 17772258 17748096 17701638 17637900 
818.634 17572824 17529112 17530284 17590420 17711648 17881486 18080200 
822.009 18284014 18475270 18644682 18790144 18914096 19019804 19109230 
825.384 19184270 19247510 19304142 19360816 19423458 19494080 19569392 
828.759 19640730 19699114 19738330 19759238 19769918 19783200 19813754 
832.133 19871640 19961588 20081710 20225436 20383896 20547522 20708326 
835.508 20858622 20992692 21106874 21200106 21274810 21335918 21389450 
838.883 21439712 21488936 21536950 21583156 21627592 21672798 21723164 
842.258 21783500 21856388 21942706 22041484 22153642 22282952 22436968 
845.633 22623500 22845976 23098268 23364448 23619038 23836004 23997890 
849.008 24100884 24156998 24189472 24224400 24280740 24366032 24475076 
852.382 24595332 24712006 24815032 24902150 24977984 25051868 25134750 
855.757 25237490 25368950 25534184 25732878 25957342 26188924 26400174 
859.132 26561256 26646048 26643266 26561926 26432708 26297474 26196950 
862.507 26160594 26194204 26280050 26382426 26464190 26496660 26470354 
865.882 26396756 26302332 26218488 26168408 26162318 26193852 26245484 
869.256 26294024 26320922 26315640 26277904 26215638 26141662 26070022 
872.631 26012606 25979466 25977674 26010600 26076636 26167704 26269102 
876.006 26359788 26419186 26431510 26392426 26312648 26217538 26141486 
879.381 26117134 26168372 26302016 26507014 26757426 27020254 27264256 
882.756 27464768 27609900 27698568 27738124 27739042 27713262 27670706 
886.131 27618904 27564742 27512704 27467840 27436038 27424460 27442074 
889.505 27497950 27597082 27737242 27904722 28076510 28221562 28308624 
892.880 28316618 28237934 28081636 27868720 27625682 27372972 27122450 
896.255 26878246 26640938 26415664 26216060 26060734 25968140 25946016 
899.630 25984990 26057814 26127586 26158940 26127516 26028894 25876554 
903.005 25695404 25510466 25341376 25198686 25085250 25001886 24949030 
906.379 24928364 24938364 24971914 25013642 25042320 25038284 24991286 
909.754 24904326 24794264 24686332 24604168 24561110 24556972 24579904 
913.129 24612372 24637760 24647230 24639410 24617458 24584390 24539580 
916.504 24479702 24401116 24305758 24202818 24107680 24038686 24009024 
919.879 24021002 24064390 24120080 24164950 24180644 24158854 24103232 
923.254 24026568 23944352 23871252 23816086 23781088 23764322 23762432 
926.628 23773562 23797608 23835794 23888266 23953246 24027514 24106698 
930.003 24188386 24273836 24367960 24477984 24611460 24773566 24965384 
933.378 25185450 25429022 25690974 25965362 26244850 26520574 26781180 
936.753 27014224 27210174 27364466 27481678 27575226 27665656 27773304 
940.128 27912496 28086230 28285992 28494652 28693822 28872366 29029516 
943.502 29176412 29329204 29504890 29712364 29951106 30211894 30483396 
946.877 30755884 31025592 31294756 31568858 31853654 32152548 32467470 
950.252 32801736 33160898 33553936 33988888 34468756 34986968 35528244 
953.627 36071376 36597168 37096096 37572364 38041744 38524048 39035852 
957.002 39584264 40166592 40776664 41412052 42080532 42800540 43592216 
960.377 44467732 45419580 46417948 47411964 48341928 49158360 49828956 
963.751 50347832 50731008 51009460 51215540 51375432 51505016 51606460 
967.126 51671168 51682288 51622544 51478268 51248012 50945632 50601244 
970.501 50253520 49937224 49675392 49469560 49302164 49143924 48969240 
973.876 48762812 48524920 48265492 47994524 47712188 47406608 47058956 
977.251 46655688 46200536 45719204 45251720 44840424 44515272 44282000 
980.625 44123308 44007088 43903556 43793736 43676328 43561700 43463248 
984.000 43385396 43319900 43247820 43149516 43013144 42840760 42646148 
987.375 42450016 42269928 42113900 41978916 41853492 41723696 41576796 
990.750 41406040 41210392 40994876 40768764 40545684 40342676 40176984 
994.125 40064108 40012732 40022472 40082896 40176876 40284796 40386932 
997.500 40468244 40517456 40526116 40489160 40405656 40281708 40133008 
1000.874 39984284 39863652 39791168 39773988 39799844 39843204 39872732 
1004.249 39868156 39828712 39777256 39749480 39783976 39905788 40116728 
1007.624 40395400 40704640 41006236 41267408 41469720 41608520 41687952 
1010.999 41716800 41707864 41679380 41653156 41655308 41708812 41823792 
1014.374 41993512 42193676 42391596 42556564 42675792 42759588 42839408 
1017.748 42953996 43134988 43395104 43722972 44087216 44447212 44768940 
1021.123 45028088 45214504 45329464 45378936 45371944 45319424 45237264 
1024.498 45144132 45062488 45013388 45010372 45057640 45148472 45268632 
1027.873 45399276 45522452 45623980 45693728 45726788 45724360 45694540 
1031.249 45651660 45613344 45595424 45604588 45633292 45660748 45660456 
1034.624 45608524 45496252 45333876 45148988 44973804 44833004 44734340 
1037.999 44665440 44599344 44507416 44373112 44197400 44000088 43809424 
1041.374 43655520 43557048 43518444 43531368 43581372 43653980 43740600 
1044.750 43840908 43961184 44110908 44297776 44525256 44789068 45077964 
1048.125 45372572 45651512 45895168 46090508 46237460 46349448 46451764 
1051.500 46572212 46735640 46957016 47238676 47574048 47953748 48370076 
1054.875 48820612 49306024 49826056 50374360 50937364 51495312 52026568 
1058.251 52514268 52946968 53319000 53628584 53875332 54061084 54193460 
1061.626 54289792 54375480 54479288 54625920 54824740 55068632 55335508 
1065.001 55601040 55846984 56071096 56285660 56511092 56761712 57038164 
1068.376 57324248 57595464 57828808 58013644 58156704 58277864 58402132 
1071.752 58550248 58736264 58968892 59257540 59617112 60066844 60624048 
1075.127 61296612 62075856 62937700 63848576 64780636 65718784 66664680 
1078.502 67629992 68624880 69645752 70673040 71672128 72609440 73462984 
1081.877 74230352 74927992 75584216 76231240 76896120 77602536 78370192 
1085.253 79214552 80146384 81165728 82258304 83393024 84529984 85629696 
1088.628 86662968 87618040 88497360 89309120 90057568 90741032 91354904 
1092.003 91902000 92399832 92878440 93368424 93885944 94418696 94924528 
1095.378 95342624 95621680 95734848 95694000 95540008 95326576 95096192 
1098.754 94864096 94620656 94340544 94000176 93588224 93111288 92587680 
1102.129 92040528 91489208 90950640 90441416 89978360 89581240 89266344 
1105.504 89042296 88908832 88857552 88879920 88972096 89136672 89378720 
1108.879 89696704 90077544 90493040 90909216 91301464 91663496 92012200 
1112.255 92378056 92789408 93252672 93744432 94214000 94605160 94872088 
1115.630 94996928 94990584 94882680 94702360 94463424 94161352 93779464 
1119.005 93301344 92719904 92040776 91276808 90440680 89540392 88582680 
1122.380 87579768 86555832 85548504 84600992 83748120 83009888 82388144 
1125.755 81873584 81459056 81152032 80977760 80975528 81182224 81621400 
1129.131 82294744 83184976 84266640 85520624 86944128 88550624 90360464 
1132.506 92387528 94628400 97060424 99646584 102344720 105120640 107946136 
1135.881 110794976 113637568 116432736 119136536 121715512 124158184 
1138.774 126481504 128722024 130918128 133086952 135214320 137257136 
1141.667 139165136 140896560 142436592 143794544 144993296 146051072 
1144.560 146974352 147762512 148419392 148967200 149450320 149920304 
1147.453 150421056 150970704 151556976 152147152 152707648 153225344 
1150.347 153712752 154200896 154719712 155282176 155875200 156466864 
1153.240 157021744 157520192 157962896 158366272 158747472 159112208 
1156.133 159449856 159742512 159974704 160147056 160273120 160370320 
1159.026 160444720 160481824 160448608 160312048 160052864 159680272 
1161.919 159226496 158734592 158236080 157738336 157224656 156667328 
1164.812 156043600 155345856 154582144 153765056 152899040 151974848 
1167.705 150972720 149877344 148689024 147429328 146131456 144823472 
1170.598 143516112 142196896 140840016 139421344 137936912 136406528 
1173.491 134868432 133358656 131900248 130493536 129123928 127772480 
1176.384 126430032 125099968 123791512 122506760 121231840 119936008 
1179.277 118586400 117163800 115678464 114169840 112697648 111316568 
1182.170 110055888 108911928 107851064 106827032 105795560 104731648 
1185.063 103630888 102504920 101371240 100248096 99151088 98093680 97090048 
1188.439 96151904 95283904 94477840 93711424 92952712 92168424 91338184 
1191.814 90460840 89554080 88644448 87757320 86907256 86093544 85307248 
1195.189 84539400 83789344 83065768 82381976 81746568 81156304 80595080 
1198.564 80036976 79454832 78831720 78163560 77459184 76734496 76009152 
1201.940 75300432 74623664 73993888 73424064 72925176 72501944 72151232 
1205.315 71860216 71610576 71383192 71163376 70943784 70724544 70509192 
1208.690 70301752 70104480 69918976 69748144 69597096 69471952 69375232 
1212.065 69301456 69234880 69155416 69043616 68891064 68705576 68510032 
1215.441 68333784 68200592 68122096 68093296 68099184 68122712 68155816 
1218.816 68202144 68273760 68381792 68528696 68703712 68887728 69059656 
1222.191 69208880 69339040 69467872 69616776 69803008 70031976 70295984 
1225.566 70579200 70864752 71142336 71407952 71662624 71906816 72138008 
1228.942 72351384 72542944 72713704 72871088 73026648 73192192 73373992 
1232.317 73571888 73781816 73998872 74220840 74447792 74678792 74906104 
1235.692 75113760 75278368 75376848 75395848 75337824 75221072 75072088 
1239.067 74917600 74773168 74639688 74505176 74351560 74162904 73928432 
1242.443 73644784 73312800 72934776 72513728 72053864 71562168 71047424 
1245.818 70519336 69983400 69438640 68878016 68293184 67679320 67041308 
1249.193 66392616 65752596 65139844 64565404 64031920 63536108 63074148 
1252.568 62646100 62256280 61909612 61606248 61336292 61081688 60819496 
1255.943 60532660 60215640 59876492 59531028 59194880 58874092 58562760 
1259.319 58247024 57914740 57564820 57210952 56875004 56578688 56331720 
1262.694 56128064 55948056 55769068 55575808 55365088 55145180 54927980 
1266.069 54722424 54528688 54339992 54147404 53946868 53741928 53542628 
1269.444 53359648 53198536 53057552 52928744 52802848 52675536 52548408 
1272.820 52428164 52319572 52220912 52121036 52004456 51856204 51669824 
1276.195 51450736 51214272 50979204 50759680 50560556 50376740 50197872 
1279.570 50012616 49814128 49600208 49369724 49119772 48842560 48526996 
1282.945 48163712 47749948 47292836 46807712 46315532 45836320 45383496 
1286.321 44964948 44582420 44235848 43925732 43654820 43426668 43243576 
1289.696 43103992 43001768 42926052 42864932 42805512 42737540 42654444 
1293.071 42553896 42438284 42314448 42192620 42083416 41995776 41933440 
1296.446 41893448 41867104 41843680 41814384 41774980 41727780 41678212 
1299.822 41631972 41590728 41550436 41503260 41440924 41358368 41256480 
1303.197 41140336 41016868 40890780 40763088 40630592 40490212 40340896 
1306.572 40186032 40032644 39888820 39760772 39650512 39556828 39477788 
1309.947 39413128 39364804 39336400 39328816 39337340 39350548 39352724 
1313.323 39327292 39265016 39166264 39041724 38906788 38778588 38670240 
1316.698 38588720 38535416 38506960 38497400 38497508 38496280 38480348 
1320.073 38435024 38349344 38217084 38041452 37833360 37610008 37389812 
1323.448 37185492 37003212 36839868 36686248 36531168 36366056 36187612 
1326.824 35998368 35804564 35614116 35434076 35269488 35122672 34994944 
1330.199 34886496 34797996 34730656 34686332 34667132 34675600 34713968 
1333.574 34783856 34885276 35016564 35174984 35356680 35558628 35779236 
1336.949 36018236 36275276 36547100 36824684 37092776 37333584 37533672 
1340.325 37690192 37812432 37920092 38034548 38170700 38335268 38524012 
1343.700 38725880 38925884 39111152 39274732 39415812 39538460 39648876 
1347.075 39752604 39853048 39952496 40052700 40155580 40262876 40375696 
1350.450 40493084 40612660 40730444 40842764 40945280 41034056 41104460 
1353.826 41151848 41173484 41170532 41150940 41128428 41120848 41143576 
1357.201 41204488 41301004 41421308 41548104 41663808 41758164 41829084 
1360.576 41883192 41930484 41980956 42039320 42104812 42175092 42249584 
1363.951 42332312 42430136 42547940 42685956 42838164 42994452 43143000 
1367.327 43274288 43385216 43479692 43566168 43653836 43750312 43861108 
1370.702 43991068 44147808 44341224 44582820 44881060 45236676 45638552 
1374.077 46065156 46492952 46902900 47284340 47628692 47919076 48125396 
1377.452 48203284 48101080 47781316 47231324 46471636 45545040 44503488 
1380.828 43391076 42237316 41066032 39900848 38768628 37698976 36711520 
1384.203 35810788 34982696 34200916 33434824 32661718 31877864 31097128 
1387.578 30343272 29635202 28978224 28365602 27788776 27243970 26735154 
1390.953 26271744 25864140 25516158 25224250 24977634 24763780 24571944 
1394.328 24399572 24252148 24138538 24064182 24028284 24024082 24043552 
1397.704 24078540 24123020 24172060 24221492 24267634 24308176 24342482 
1401.079 24371326 24395964 24416362 24430244 24432172 24413454 24365542 
1404.454 24282666 24166562 24026430 23878536 23741014 23630268 23562084 
1407.829 23549664 23605462 23741468 23966586 24284104 24690156 25172948 
1411.205 25714670 26294906 26894636 27495902 28081174 28633828 29135236 
1414.580 29569154 29924412 30195590 30384064 30493420 30524558 30470992 
1417.955 30320318 30064650 29715416 29310736 28900272 28521472 28187478 
1421.330 27889564 27608488 27326460 27036050 26747206 26488914 26296350 
1424.706 26197970 26201876 26296770 26463134 26686424 26964368 27306066 
1428.081 27725940 28233442 28823854 29475812 30157692 30839544 31503514 
1431.456 32144916 32767896 33377678 33975880 34560200 35129500 35686272 
1434.831 36242716 36820972 37446368 38127936 38845256 39551672 40198500 
1438.207 40758648 41230864 41630584 41979828 42300932 42611568 42923160 
1441.582 43238996 43556496 43870232 44176200 44475552 44774264 45081860 
1444.957 45409648 45768900 46170244 46623888 47137096 47713484 48350552 
1448.332 49041900 49782764 50578684 51445216 52406888 53488248 54701832 
1451.708 56037392 57459856 58921716 60371648 61777840 63131088 64434520 
1455.083 65691568 66881692 67941424 68769736 69287344 69510760 69542224 
1458.458 69504584 69468800 69456096 69466976 69500344 69560920 69656336 
1461.833 69789928 69955056 70127336 70267272 70318848 70220688 69921000 
1465.209 69375968 68547712 67399104 65886652 63986076 61704656 59093468 
1468.584 56224452 53178760 50012132 46715824 43232300 39481232 35438176 
1471.959 31232796 27178144 23644228 20850070 18778382 17248278 16039459 
1475.334 14992697 14022056 13107907 12265475 11513706 10853696 10268506 
1478.710 9733673 9229824 8749311 8296583 7881845 7512573 7188248 6901128 
1482.567 6641011 6402435 6186541 5998940 5844297 5721535 5623176 5537290 
1486.424 5452830 5364327 5273024 5184089 5098289 5009121 4902344 4766884 
1490.282 4605545 4436099 4281108 4155843 4062119 3991555 3930364 3865738 
1494.139 3790661 3705269 3617356 3536374 3467165 3403076 3329614 3232095 
1497.997 3109102 2973532 2847443 2750000 2689617 2661746 2652878 2647711 
1501.854 2637010 2620342 2606175 2607342 2636243 2700952 2800586 2920457 
1505.712 3024211 3060948 2990580 2825098 2622576 2439407 2298383 2197965 
1509.569 2131133 2092111 2076762 2079293 2090346 2097205 2086351 2049263 
1513.426 1985150 1900546 1807074 1719477 1653184 1619659 1625346 1668451 
1517.284 1741499 1835223 1942812 2059450 2177585 2284693 2359477 2375502 
1521.141 2315904 2188774 2028357 1871427 1739437 1634392 1548892 1475543 
1524.999 1411448 1359428 1323964 1306882 1303558 1304522 1300734 1287374 
1528.856 1266272 1242945 1223772 1211877 1205431 1198453 1182704 1152604 
1532.714 1109916 1065571 1035579 1029999 1045742 1071616 1096662 1115497 
1536.571 1129848 1147056 1179316 1239489 1334035 1451141 1551286 1583941 
1540.428 1519963 1376080 1195430 1017843 862739 733710 629273 549511 498190 
1544.768 480112 493812 530269 573763 609397 625192 615868 583351 535511 
1549.108 484690 442399 415865 404324 403196 409398 424853 456163 510132 
1553.447 588560 682733 773705 841458 872134 864199 827183 779282 742405 
1557.787 738589 776029 830635 850554 808692 724184 626519 534681 455699 
1562.126 392384 346455 321552 323143 355043 416329 497892 585077 662423 
1566.466 719836 754985 773141 784128 799431 827216 866789 907727 936050 
1570.806 943389 929077 897965 854771 802086 738389 659038 558004 431851 
1575.145 285875 139350 22200 -40156 -41316 5533 80423 165436 250930 329742 
1579.967 397359 449762 484557 502569 508308 510497 517928 536838 568554 
1584.307 608767 650079 685188 711871 732946 755250 784460 822203 863701 
1588.646 899625 919680 918651 898928 869279 840130 819581 808692 801721 
1592.986 789041 762685 720732 668629 616797 575720 553094 550307 565070 
1597.325 594533 638232 698928 779116 878276 988385 1094602 1180179 1230251 
1601.665 1239522 1213338 1166624 1117291 1080551 1064508 1068560 1086132 
1605.522 1109119 1130911 1147887 1159249 1165428 1167920 1168518 1170245 
1609.380 1177588 1195197 1226164 1270326 1323566 1378673 1429100 1472052 
1613.237 1510022 1550821 1604627 1682022 1787610 1915522 2046300 2154242 
1617.095 2221144 2247988 2249953 2246423 2251052 2270337 2305645 2356179 
1620.952 2420381 2496589 2582176 2672180 2759536 2837705 2904712 2965692 
1624.809 3029216 3105297 3199750 3313220 3438609 3563600 3674626 3761148 
1628.667 3821579 3862797 3895091 3926720 3960892 3995802 4026200 4045664 
1632.524 4048540 4030347 3987542 3917926 3822047 3709547 3600517 3522178 
1636.382 3492449 3509919 3558389 3618391 3674960 3718436 3744337 3753561 
1640.239 3750185 3740192 3729431 3722246 3720809 3726022 3739791 3765092 
1644.097 3805702 3864535 3940528 4024695 4100282 4149989 4167685 4165243 
1647.954 4163839 4179261 4214490 4262671 4312898 4356405 4388870 4417187 
1651.811 4465792 4581402 4805980 5117198 5415152 5615893 5709416 5728015 
1655.669 5707770 5676415 5651977 5643753 5655803 5687090 5733958 5791508 
1659.526 5855884 5923728 5991013 6052427 6101720 6133946 6149438 6156899 
1663.384 6170140 6200860 6254640 6329405 6418811 6516341 6618335 6725096 
1667.241 6840737 6970920 7119464 7282413 7447345 7596828 7717929 7809038 
1671.099 7878302 7937015 7993845 8053552 8118196 8190582 8275982 8382645 
1674.956 8517819 8680753 8859337 9036067 9196318 9333777 9448692 9545652 
1678.813 9630574 9708701 9782268 9851372 9914657 9972629 10030777 10102431 
1682.671 10208527 10375727 10618771 10917535 11221230 11490060 11722359 
1686.046 11943951 12180616 12449018 12753104 13087349 13439350 13797485 
1689.421 14157524 14523105 14901714 15296752 15702728 16108571 16504604 
1692.797 16888528 17273276 17686558 18166666 18744684 19417082 20122138 
1696.172 20763690 21271364 21642952 21927860 22198486 22523190 22954254 
1699.547 23505452 24124002 24704044 25162066 25491456 25739980 25960262 
1702.922 26189030 26449682 26758554 27129752 27574592 28095562 28683344 
1706.297 29320236 29990866 30692762 31438642 32248966 33143342 34127756 
1709.673 35188708 36290696 37390856 38456600 39477096 40473408 41489808 
1713.048 42580100 43784796 45113692 46539092 48014360 49498228 50989336 
1716.423 52528588 54178444 55953224 57777860 59520428 61072652 62413632 
1719.798 63604304 64738364 65910212 67192432 68628112 70228168 71976352 
1723.174 73843240 75796416 77814576 79885248 81995944 84130688 86271944 
1726.549 88417424 90598832 92888000 95385256 98182648 101318888 104741016 
1729.924 108315816 111873512 115312064 118663856 122136568 126091528 
1732.817 130989208 137181392 144547312 152319424 159475120 165436288 
1735.710 170284928 174429664 178270416 182075408 185972784 189972752 
1738.603 193983840 197862096 201438032 204558032 207100384 208963840 
1741.496 210065984 210365728 209889792 208749616 207107440 205118304 
1744.390 202845824 200243744 197187424 193553472 189285328 184434608 
1747.283 179127168 173521360 167715040 161701568 155378032 148638384 
1750.176 141475760 134039384 126628768 119574728 113112792 107312192 
1753.069 102099656 97318376 92783984 88323536 83791432 79090152 74209080 
1756.444 69245992 64389668 59851428 55770652 52180444 49018344 46168252 
1759.819 43498112 40891472 38279392 35659580 33103752 30723060 28612134 
1763.194 26807752 25286268 23986124 22837908 21782594 20780894 19814378 
1766.570 18885650 18011154 17210322 16494520 15859377 15285734 14744760 
1769.945 14208157 13652452 13064164 12445744 11820543 11228677 10709472 
1773.320 10282891 9946049 9682781 9473412 9300432 9149989 9010863 8875266 
1777.178 8738121 8597031 8450245 8295401 8128426 7945046 7743428 7526328 
1781.035 7303507 7087300 6889816 6718029 6574702 6456980 6358521 6270405 
1784.892 6185163 6096612 6002972 5904717 5803832 5701896 5598439 5491518 
1788.750 5377410 5250990 5107106 4942223 4757772 4564090 4380301 4231118 
1792.607 4134668 4093659 4093626 4110551 4119415 4097639 4031016 3913914 
1796.465 3751021 3554514 3341601 3129960 2932366 2757135 2607242 2481959 
1800.322 2379633 2298483 2237530 2195035 2168427 2152177 2139158 2121677 
1804.180 2093076 2049596 1991974 1924907 1856686 1796560 1753476 1733116 
1808.037 1737142 1762591 1802848 1849032 1890629 1917785 1922178 1898715 
1811.894 1846171 1767681 1669216 1557870 1441666 1328285 1224337 1136093 
1815.752 1067564 1020201 992204 978024 969024 954778 925159 872367 792460 
1820.091 687180 563577 432448 305304 193579 104152 40524 1590 -16765 -20642 
1824.913 -15837 -5798 7985 26110 49405 77441 108229 137030 156321 157879 
1829.735 135075 86322 16832 -63579 -144506 -217867 -277342 -321082 -349423 
1834.075 -367930 -384813 -410138 -453136 -517411 -599113 -686259 -762903 
1837.932 -811919 -822237 -793729 -736541 -668858 -611191 -583595 -599510 
1841.789 -664226 -771238 -902262 -1026504 -1108475 -1122454 -1062302 -945576 
1845.647 -801765 -662440 -549048 -472565 -435759 -434931 -462371 -507912 
1849.504 -562152 -616418 -663763 -699194 -718678 -719671 -701113 -665781 
1853.362 -619694 -571484 -530847 -505165 -498546 -510990 -538723 -575157 
1857.219 -613010 -646295 -671836 -690924 -708192 -731281 -767302 -820683 
1861.077 -889301 -964520 -1030537 -1068979 -1064483 -1008488 -904610 -767732 
1864.934 -623863 -501128 -423445 -405238 -448105 -541933 -667700 -806164 
1868.791 -943923 -1078002 -1212403 -1351684 -1493068 -1625228 -1728901 
1872.167 -1784275 -1776916 -1703059 -1572375 -1406909 -1236325 -1087719 
1875.542 -982405 -929607 -926499 -960024 -1012984 -1069276 -1115845 -1144762 
1879.399 -1153354 -1141886 -1112441 -1069474 -1019595 -971496 -937409 
1882.775 -931359 -964983 -1045015 -1168951 -1323145 -1485440 -1632259 
1886.150 -1743553 -1807109 -1821463 -1793811 -1737778 -1667842 -1595385 
1889.525 -1525525 -1458296 -1392080 -1327670 -1271048 -1231666 -1219738 
1892.900 -1241512 -1296618 -1375797 -1461598 -1532294 -1569899 -1564980 
1896.276 -1520573 -1450403 -1375565 -1316670 -1290573 -1305108 -1356903 
1899.651 -1431777 -1506936 -1560391 -1575247 -1546986 -1485638 -1414934 
1903.026 -1364434 -1359116 -1413547 -1525525 -1678008 -1842942 -1992015 
1906.401 -2098832 -2146280 -2127783 -2046565 -1915357 -1754972 -1595947 
1909.776 -1474345 -1423884 -1468467 -1610340 -1826610 -2069912 -2284734 
1913.152 -2415534 -2425913 -2311102 -2099458 -1843701 -1601394 -1423356 
1916.527 -1337547 -1345442 -1422894 -1533780 -1644043 -1733059 -1797672 
1919.902 -1843767 -1877056 -1896751 -1896619 -1869501 -1813610 -1737349 
1923.277 -1656850 -1586967 -1534044 -1491945 -1443699 -1369290 -1255785 
1926.653 -1103517 -929309 -761679 -635079 -578201 -605863 -714113 -880670 
1930.510 -1070664 -1244518 -1370479 -1427385 -1409947 -1324796 -1189802 
1933.885 -1026702 -853753 -686326 -534057 -404312 -305918 -249162 -242440 
1937.743 -288170 -378689 -496064 -616782 -722648 -804808 -870750 -940087 
1941.600 -1036619 -1173941 -1342634 -1508950 -1629057 -1666456 -1609713 
1944.975 -1478472 -1321229 -1198625 -1160359 -1231831 -1402351 -1630245 
1948.351 -1851850 -2005472 -2046927 -1958042 -1749428 -1453970 -1120505 
1951.726 -800211 -545077 -397161 -380311 -495799 -719604 -1009248 -1307718 
1955.583 -1561018 -1731508 -1805097 -1792888 -1723785 -1633216 -1544774 
1958.959 -1471868 -1415265 -1372692 -1348513 -1358555 -1426857 -1579176 
1962.334 -1831592 -2181985 -2605549 -3060813 -3491771 -3839580 -4057599 
1965.709 -4112349 -3996112 -3729544 -3366293 -2982633 -2655740 -2444562 
1969.084 -2366863 -2399882 -2490786 -2583580 -2638121 -2648693 -2646717 
1972.460 -2687749 -2823563 -3075224 -3421295 -3800890 -4135652 -4349717 
1975.835 -4400494 -4285122 -4031567 -3676060 -3248113 -2761308 -2225204 
1979.210 -1656454 -1090462 -578565 -181106 50664 82677 -94256 -460617 
1983.068 -969281 -1549033 -2122474 -2610621 -2944096 -3079994 -3003035 
1986.443 -2740005 -2356779 -1956030 -1641270 -1492341 -1544147 -1778401 
1989.818 -2132629 -2515921 -2843709 -3050778 -3113189 -3046007 -2892523 
1993.193 -2704411 -2527748 -2400244 -2346168 -2379781 -2502052 -2698484 
1996.568 -2937317 -3169736 -3343969 -3413997 -3355706 -3174275 -2900916 
1999.944 -2579694 -2251971 -1950455 -1693224 -1487586 -1337118 -1243693 
2003.319 -1208009 -1223968 -1277623 -1343559 -1394193 -1411269 -1393434 
2006.694 -1360867 -1346201 -1380982 -1479859 -1632556 -1811564 -1983242 
2010.069 -2123100 -2225138 -2300324 -2366237 -2436687 -2510914 -2577421 
2013.445 -2620074 -2627912 -2601202 -2550740 -2489039 -2425254 -2361656 
2016.820 -2296929 -2235093 -2189238 -2179546 -2224380 -2327844 -2473226 
2020.195 -2627550 -2753439 -2823233 -2833373 -2802724 -2759661 -2722982 
2023.570 -2688572 -2631699 -2522378 -2348738 -2134476 -1936073 -1828193 
2026.946 -1867324 -2064240 -2375926 -2719163 -2997901 -3142203 -3137499 
2030.321 -3022317 -2866948 -2737602 -2675203 -2679912 -2721995 -2761406 
2033.696 -2772732 -2750937 -2711655 -2671482 -2636376 -2596492 -2531437 
2037.071 -2422058 -2264331 -2067307 -1851091 -1634669 -1426493 -1224397 
2040.447 -1021281 -812382 -604738 -413779 -259295 -153284 -95150 -69112 
2044.304 -54502 -36379 -14148 -3213 -27169 -108202 -253235 -451216 -673589 
2048.644 -889664 -1074135 -1216963 -1320700 -1395746 -1452814 -1498021 
2052.019 -1534638 -1565145 -1594791 -1632820 -1689032 -1770977 -1878838 
2055.394 -2005241 -2137147 -2260277 -2364655 -2444957 -2499384 -2528670 
2058.769 -2531207 -2504029 -2444924 -2354340 -2236775 -2102426 -1963913 
2062.145 -1832021 -1715270 -1617140 -1537015 -1472231 -1419789 -1378307 
2065.520 -1348679 -1334508 -1340156 -1371238 -1431612 -1521563 -1635329 
2068.895 -1760813 -1879234 -1969554 -2016586 -2014080 -1969916 -1903778 
2072.270 -1840566 -1798959 -1785100 -1789489 -1791865 -1769525 -1710023 
2075.646 -1615523 -1505351 -1406546 -1342865 -1327274 -1355087 -1408098 
2079.021 -1458824 -1483260 -1466716 -1405918 -1309006 -1191355 -1071689 
2082.396 -968190 -898824 -877727 -914463 -1012158 -1164226 -1355846 -1563857 
2086.253 -1764839 -1938613 -2073837 -2169721 -2233709 -2277681 -2313936 
2089.629 -2353879 -2406044 -2477443 -2571558 -2687486 -2817374 -2945248 
2093.004 -3051008 -3111709 -3111051 -3045251 -2922869 -2762098 -2582625 
2096.379 -2399256 -2218084 -2040958 -1868610 -1708538 -1575148 -1486100 
2099.754 -1453507 -1477383 -1542595 -1625690 -1702960 -1762826 -1811069 
2103.130 -1866928 -1951181 -2071462 -2213699 -2344157 -2418862 -2401826 
2106.505 -2282625 -2080267 -1838620 -1607501 -1430291 -1327637 -1296288 
2109.880 -1315283 -1359513 -1411169 -1462159 -1512483 -1563164 -1609085 
2113.255 -1639620 -1641469 -1608095 -1544972 -1471901 -1416487 -1401790 
2116.631 -1439968 -1524238 -1631698 -1729990 -1791535 -1799751 -1756028 
2120.006 -1677645 -1594428 -1539459 -1539492 -1609647 -1748966 -1939537 
2123.381 -2148456 -2338126 -2472962 -2530416 -2507554 -2422420 -2306619 
2126.756 -2192502 -2104767 -2050753 -2022984 -2006065 -1989211 -1974600 
2130.132 -1978030 -2020346 -2113868 -2250850 -2402913 -2527649 -2588488 
2133.507 -2573765 -2506730 -2436984 -2419850 -2493619 -2657848 -2874255 
2136.882 -3081211 -3226275 -3287280 -3283728 -3261301 -3273074 -3348703 
2140.257 -3475994 -3604628 -3666795 -3607454 -3405219 -3085028 -2707605 
2143.633 -2351935 -2081619 -1929245 -1889230 -1928684 -1998545 -2053886 
2147.008 -2066417 -2025029 -1937129 -1823574 -1715799 -1646882 -1648070 
2150.383 -1738108 -1914071 -2147565 -2386833 -2574885 -2663907 -2636606 
2153.758 -2513648 -2353418 -2230874 -2212842 -2336940 -2597941 -2949000 
2157.134 -3316908 -3631375 -3840040 -3926538 -3906541 -3817608 -3696692 
2160.509 -3569499 -3446607 -3325851 -3201246 -3064564 -2908420 -2730490 
2163.884 -2528966 -2308267 -2079344 -1861616 -1676820 -1548175 -1489369 
2167.259 -1502511 -1573762 -1677843 -1783549 -1860065 -1885106 -1852939 
2170.635 -1775465 -1681771 -1613740 -1613014 -1707251 -1900974 -2167347 
2174.010 -2457642 -2709877 -2876527 -2942253 -2932117 -2900949 -2917866 
2177.385 -3034129 -3260445 -3559048 -3852750 -4056220 -4097973 -3952675 
2180.760 -3647245 -3256894 -2873136 -2576960 -2413260 -2380012 -2434414 
2184.135 -2512627 -2557032 -2528011 -2418137 -2250191 -2067901 -1921493 
2187.511 -1853368 -1890945 -2036176 -2268814 -2547776 -2825307 -3055055 
2190.886 -3205522 -3265543 -3245087 -3169210 -3067755 -2968318 -2887751 
2194.261 -2829784 -2788831 -2753966 -2713993 -2659429 -2586413 -2493882 
2197.636 -2387459 -2278604 -2185744 -2132300 -2139586 -2219336 -2366040 
2201.012 -2554397 -2742211 -2886928 -2957162 -2944294 -2864710 -2754361 
2204.387 -2652645 -2586116 -2560952 -2563521 -2569680 -2559305 -2528373 
2207.762 -2491444 -2473588 -2495793 -2560688 -2646519 -2714224 -2717747 
2211.137 -2624026 -2427791 -2154984 -1855314 -1585977 -1397595 -1315448 
2214.513 -1338208 -1440430 -1586175 -1736458 -1863860 -1957283 -2022457 
2217.888 -2079047 -2150961 -2262519 -2429307 -2652085 -2914443 -3186379 
2221.263 -3426423 -3588723 -3637388 -3549912 -3326575 -2990366 -2586051 
2224.638 -2169259 -1795164 -1510304 -1341973 -1295264 -1353832 -1486662 
2228.014 -1654441 -1820143 -1958471 -2058272 -2121188 -2157654 -2180831 
2231.389 -2200678 -2220095 -2237599 -2250224 -2256618 -2259717 -2265024 
2234.764 -2277417 -2296732 -2316705 -2326954 -2316144 -2279955 -2223951 
2238.139 -2162830 -2115879 -2100678 -2124947 -2185216 -2266771 -2351210 
2241.515 -2422618 -2472863 -2502777 -2520698 -2536872 -2557855 -2585919 
2244.890 -2617768 -2647145 -2667201 -2672832 -2659330 -2621720 -2555549 
2248.265 -2454809 -2317067 -2146378 -1956030 -1768139 -1609085 -1506242 
2251.640 -1477317 -1527176 -1643911 -1802424 -1968399 -2105361 -2185480 
2255.016 -2193557 -2132201 -2018763 -1883423 -1759922 -1676655 -1651998 
2258.391 -1688405 -1774112 -1885436 -1997523 -2090061 -2153731 -2191974 
2261.766 -2220095 -2257278 -2320066 -2416127 -2540727 -2679714 -2812403 
2265.141 -2920598 -2993985 -3032813 -3046731 -3050449 -3056898 -3069499 
2268.517 -3081475 -3075816 -3032912 -2936692 -2783893 -2585590 -2367885 
2271.892 -2161380 -1994225 -1882599 -1825356 -1805756 -1798464 -1781008 
2275.267 -1740946 -1681210 -1618131 -1575247 -1572144 -1617503 -1705831 
2278.642 -1819549 -1935941 -2033736 -2100843 -2135498 -2145290 -2142356 
2282.018 -2139125 -2144169 -2159764 -2183304 -2207666 -2223951 -2222270 
2285.393 -2195897 -2141960 -2063944 -1972258 -1883291 -1816282 -1787278 
2288.768 -1805921 -1870062 -1967310 -2075683 -2172227 -2237566 -2260673 
2292.143 -2241785 -2190854 -2124288 -2058602 -2008902 -1985089 -1990993 
2295.519 -2024666 -2079805 -2146280 -2211227 -2262387 -2288689 -2284207 
2298.894 -2249202 -2189799 -2117264 -2042772 -1975161 -1916710 -1863563 
2302.269 -1807571 -1740484 -1658039 -1562933 -1464339 -1376259 -1313235 
2305.644 -1285419 -1295924 -1340388 -1408032 -1484548 -1555901 -1612585 
2309.020 -1649886 -1669129 -1676292 -1680252 -1689329 -1709033 -1740286 
2312.395 -1779325 -1817833 -1845779 -1855050 -1841094 -1804602 -1750517 
2315.770 -1687382 -1622191 -1559565 -1499672 -1439604 -1376457 -1310129 
2319.145 -1246336 -1196873 -1177212 -1199153 -1267744 -1376193 -1506573 
2322.521 -1632985 -1731508 -1786915 -1797210 -1774277 -1738636 -1712762 
2325.896 -1712399 -1743223 -1799388 -1867324 -1929080 -1970477 -1984495 
2329.271 -1972258 -1939702 -1894343 -1840929 -1780051 -1710584 -1633546 
2332.646 -1554712 -1487487 -1449148 -1455059 -1515092 -1628694 -1784011 
2336.021 -1959592 -2130552 -2273000 -2366303 -2398597 -2363897 -2264035 
2339.397 -2106878 -1907638 -1688141 -1473420 -1291233 -1163763 -1104806 
2342.772 -1116109 -1187588 -1300384 -1430985 -1557089 -1660778 -1730386 
2346.147 -1762925 -1761572 -1734016 -1691045 -1645232 -1609052 -1594065 
2349.522 -1610274 -1662264 -1747349 -1853038 -1959526 -2041684 -2077893 
2352.898 -2057876 -1986903 -1884017 -1774079 -1681540 -1620804 -1594329 
2356.273 -1593041 -1604101 -1615886 -1624237 -1632853 -1652724 -1695270 
2359.648 -1767149 -1866334 -1982252 -2098041 -2195831 -2262749 -2294326 
2363.023 -2295611 -2277846 -2255168 -2237335 -2228501 -2224875 -2218611 
2366.399 -2202524 -2173875 -2135762 -2095699 -2061734 -2038320 -2023644 
2369.774 -2010353 -1988552 -1950785 -1894244 -1822419 -1744874 -1673288 
2373.149 -1617701 -1586076 -1581190 -1601394 -1640643 -1690154 -1738009 
2376.524 -1771604 -1780348 -1757876 -1704412 -1628628 -1545798 -1474378 
2379.900 -1430490 -1424182 -1455753 -1516280 -1589542 -1659029 -1710650 
2383.275 -1737547 -1740814 -1728109 -1710584 -1698273 -1699098 -1715369 
2386.650 -1745039 -1781800 -1817998 -1845713 -1859175 -1855776 -1837333 
2390.025 -1809551 -1780513 -1758965 -1751012 -1758437 -1777972 -1802820 
2393.401 -1825917 -1841721 -1849640 -1854094 -1862078 -1879332 -1908166 
2396.776 -1944584 -1980207 -2003361 -2004284 -1977667 -1924066 -1849244 
2400.151 -1761440 -1669888 -1582213 -1503403 -1437128 -1385837 -1352081 
2403.526 -1337745 -1344616 -1372692 -1420219 -1483260 -1555868 -1631103 
2406.902 -1702069 -1762364 -1807835 -1837531 -1854490 -1864948 -1877782 
2410.277 -1901568 -1941978 -1999106 -2067967 -2138597 -2199392 -2241356 
2413.652 -2259189 -2252992 -2226589 -2184854 -2131706 -2068330 -1994753 
2417.027 -1911234 -1821232 -1732399 -1655596 -1602582 -1582940 -1600568 
2420.403 -1652427 -1728109 -1813676 -1892397 -1948773 -1972225 -1957184 
2423.778 -1905988 -1827204 -1736326 -1651140 -1588288 -1560094 -1570295 
2427.153 -1613179 -1674938 -1739263 -1790116 -1817305 -1818823 -1799652 
2430.528 -1769789 -1740187 -1720683 -1717449 -1733587 -1769228 -1821957 
2433.904 -1887316 -1957514 -2022919 -2072386 -2095732 -2087291 -2047818 
2437.279 -1984792 -1910376 -1839115 -1782658 -1747316 -1733686 -1738471 
2440.654 -1756490 -1783087 -1815886 -1854391 -1897345 -1942671 -1985517 
2444.029 -2019423 -2038847 -2039771 -2021731 -1988090 -1944815 -1898830 
2447.405 -1857789 -1829018 -1818856 -1832945 -1874945 -1945771 -2041750 
2450.780 -2154687 -2272374 -2379682 -2462518 -2510090 -2516844 -2482846 
2454.155 -2414183 -2319704 -2209546 -2094150 -1982615 -1881906 -1797012 
2457.530 -1730551 -1683553 -1655035 -1642888 -1645595 -1661703 -1689791 
2460.906 -1728835 -1775399 -1823904 -1865938 -1891902 -1894244 -1870161 
2464.281 -1823343 -1765004 -1711310 -1677942 -1675400 -1705963 -1762199 
2467.656 -1829909 -1892991 -1940263 -1968036 -1981559 -1991751 -2010518 
2471.031 -2044520 -2092600 -2146016 -2192634 -2221545 -2227577 -2212677 
2474.406 -2184491 -2152148 -2120430 -2088016 -2048279 -1992642 -1915885 
2477.782 -1820935 -1719396 -1630278 -1572672 -1560589 -1598687 -1680252 
2481.157 -1789984 -1908627 -2019060 -2108625 -2170809 -2205161 -2214029 
2484.532 -2201073 -2170578 -2126859 -2074826 -2020676 -1971038 -1931488 
2487.907 -1905724 -1894079 -1894343 -1902030 -1912751 -1923142 -1931851 
2491.283 -1939504 -1948047 -1959790 -1976282 -1996995 -2019423 -2039177 
2494.658 -2050819 -2049994 -2035649 -2010881 -1983308 -1962594 -1958207 
2498.033 -1974600 -2009264 -2052303 -2090951 -2112846 -2112417 -2092798 
2501.408 -2065889 -2046828 -2047620 -2072617 -2116242 -2164776 -2201897 
2504.784 -2216139 -2203183 -2167875 -2120001 -2070638 -2027305 -1993235 
2508.159 -1968300 -1953259 -1951082 -1967113 -2006032 -2067439 -2142092 
2511.534 -2213337 -2260310 -2265353 -2221479 -2135102 -2025821 -1917798 
2514.909 -1835221 -1791898 -1788961 -1816249 -1858218 -1899457 -1930070 
2518.285 -1948047 -1956755 -1961769 -1966651 -1971433 -1972027 -1963055 
2521.660 -1940164 -1902426 -1852906 -1797408 -1742563 -1694511 -1656751 
2525.035 -1629981 -1612849 -1603011 -1598357 -1598423 -1603936 -1617140 
2528.410 -1640082 -1673981 -1717845 -1767941 -1818856 -1865047 -1901799 
2531.786 -1927365 -1942341 -1949400 -1951511 -1950422 -1946233 -1937492 
2535.161 -1922186 -1899490 -1870095 -1836244 -1800213 -1763750 -1727283 
2538.536 -1689956 -1651338 -1612188 -1575082 -1544444 -1523775 -1514596 
2541.911 -1514728 -1518922 -1519846 -1511063 -1489600 -1456479 -1416751 
2545.287 -1377679 -1346532 -1327835 -1323178 -1330940 -1347192 -1368035 
2548.662 -1389933 -1411169 -1431777 -1453177 -1476986 -1503898 -1533317 
2552.037 -1561876 -1585614 -1599908 -1602219 -1593603 -1579275 -1567324 
2555.412 -1567423 -1586637 -1627605 -1686457 -1754774 -1821232 -1875110 
2558.788 -1909914 -1923967 -1919844 -1903349 -1881180 -1859076 -1841391 
2562.163 -1831097 -1830503 -1840665 -1860824 -1888306 -1917534 -1941285 
2565.538 -1952995 -1947783 -1924693 -1886360 -1838455 -1786651 -1735897 
2568.913 -1689494 -1649127 -1615886 -1591589 -1577921 -1575776 -1583501 
2572.289 -1596706 -1607996 -1609614 -1595947 -1565541 -1521794 -1471868 
2575.664 -1423785 -1382997 -1351255 -1326448 -1303985 -1279109 -1249012 
2579.039 -1214022 -1176155 -1139243 -1106459 -1080877 -1064979 -1061112 
2582.414 -1071689 -1099022 -1143440 -1202953 -1273030 -1346565 -1415166 
2585.790 -1471769 -1510766 -1529553 -1528398 -1510205 -1479331 -1441850 
2589.165 -1404102 -1371305 -1346829 -1331436 -1322055 -1313235 -1299195 
2592.540 -1276433 -1245807 -1212304 -1185044 -1173379 -1183821 -1217095 
2595.915 -1268537 -1329487 -1390164 -1443006 -1484614 -1515191 -1537742 
2599.291 -1554448 -1566267 -1571550 -1566730 -1548373 -1514794 -1466386 
2602.666 -1406909 -1340982 -1275376 -1216170 -1168522 -1136269 -1120538 
2606.041 -1119844 -1129295 -1142151 -1150545 -1147769 -1129857 -1096940 
2609.416 -1052749 -1002968 -954502 -912909 -881828 -862913 -855770 -859342 
2613.274 -870948 -887813 -905933 -921638 -931987 -936219 -935393 -932714 
2617.131 -931822 -935558 -944187 -955428 -966239 -973611 -977182 -978537 
2620.989 -980851 -986637 -995728 -1004554 -1006835 -997083 -971760 -932252 
2624.846 -883845 -834341 -790620 -756453 -732009 -714378 -699823 -685631 
2628.703 -671008 -656683 -643615 -630943 -616584 -597294 -571285 -539186 
2632.561 -504702 -473359 -450918 -440724 -442875 -454162 -470149 -486731 
2636.418 -500962 -511884 -518867 -521349 -517344 -504834 -482726 -452342 
2640.276 -418314 -386932 -364851 -356309 -361308 -375974 -393487 -407291 
2644.133 -412687 -408648 -397261 -382529 -368095 -356707 -349224 -345351 
2647.990 -343993 -343828 -343563 -340848 -332505 -314858 -284495 -239956 
2651.848 -183093 -119531 -56622 -3015 34825 53912 55569 44169 25812 6560 
2656.670 -9575 -20178 -25048 -24584 -19614 -10602 1722 16401 31445 44600 
2661.491 53415 56563 54078 47583 39928 33831 31412 33433 39199 47185 56464 
2666.795 66571 78799 94641 116084 143759 177004 213137 248675 279807 303580 
2671.617 318435 324536 323442 317374 309018 301193 296485 297645 306995 
2675.957 325829 353883 388670 425251 457324 478851 485851 477657 457556 
2680.296 432481 410658 398354 399448 412913 434505 457656 476729 488869 
2684.636 494575 497228 501740 511658 527482 546027 561056 565701 554587 
2688.976 526056 482766 431486 380114 335711 302088 278514 260511 241912 
2693.315 217612 185523 147438 108527 75717 54011 45661 48742 58386 68526 
2698.137 74359 74259 69454 63853 60904 63025 69918 79131 86786 89868 87151 
2703.441 79396 68857 58054 48577 40789 33698 26143 17428 7885 -1391 -9111 
2708.745 -13916 -15804 -14843 -11762 -6792 99 9608 22366 38271 56563 75651 
2714.049 93282 107234 116084 118801 115818 107765 96828 85659 77706 77142 
2718.871 87582 111676 150255 201733 262003 325630 386581 439347 480311 
2723.210 507943 522772 526421 522141 513483 503730 496664 495238 501508 
2727.550 515838 537003 561454 584314 600505 605349 596490 573995 541416 
2731.889 504327 469497 443692 431851 436329 456462 488537 527084 565568 
2736.229 598315 620812 630567 627116 611388 585939 553293 516999 480211 
2740.569 446279 417756 396530 382999 376167 374410 375604 378190 381971 
2744.908 387741 396961 410758 429198 450724 472881 493082 509569 522009 
2749.248 531430 539425 547586 556843 567227 579204 593471 611786 635478 
2753.587 664879 697633 728034 748446 751832 733743 695078 642546 586935 
2757.927 539060 507313 494276 497129 508441 520781 529008 532425 533785 
2762.267 537932 548947 567393 590618 613412 631032 640721 643442 642612 
2766.606 643442 649846 663751 683529 706262 727802 745160 757242 764943 
2770.946 770486 776527 785589 799663 820112 847732 882858 925491 974537 
2775.285 1028305 1084272 1139382 1191011 1236764 1275510 1307247 1333004 
2779.143 1354575 1374053 1393731 1415238 1439638 1467298 1497952 1530836 
2783.000 1565153 1600769 1637885 1677432 1720276 1767582 1820084 1878349 
2786.858 1942746 2013344 2090046 2171691 2256181 2339456 2416649 2482626 
2790.715 2533747 2569010 2590809 2604708 2617475 2635376 2661946 2697652 
2794.573 2739596 2783479 2825698 2864620 2901477 2939438 2982973 3035456 
2798.430 3098490 3171812 3253426 3341100 3432598 3526353 3621632 3717701 
2802.287 3813490 3907729 3998744 4085230 4166280 4241524 4311325 4376821 
2806.145 4439313 4501312 4566032 4637494 4719484 4815227 4926405 5052027 
2810.002 5188917 5332224 5476787 5617940 5753498 5882718 6007440 6130451 
2813.860 6255446 6385891 6525120 6676002 6840401 7019139 7211594 7415863 
2817.717 7628322 7845406 8064016 8282095 8500046 8719561 8943989 9176521 
2821.574 9420181 9676954 9947778 10232782 10532502 10847105 11177370 
2824.950 11524015 11887997 12269701 12669582 13087623 13523737 13978118 
2828.325 14451026 14943654 15457613 15995868 16561981 17159890 17793590 
2831.700 18466004 19178694 19932134 20726434 21562332 22442584 23372176 
2835.075 24359200 25413458 26545512 27766592 29087900 30521180 32080234 
2838.451 33779900 35637604 37671584 39897796 42330448 44979832 47852332 
2841.826 50951444 54279128 57835696 61617896 65617880 69819968 74195480 
2845.201 78708096 83310400 87948248 92570256 97123536 101558824 105830816 
2848.576 109890792 113688192 117170048 120279064 122960328 125163840 
2851.469 126845952 127975704 128534344 128518000 127937584 126820176 
2854.363 125206632 123145872 120696064 117916488 114864848 111600696 
2857.256 108179008 104653432 101076160 97492072 93941680 90458560 87067760 
2860.631 83790392 80643072 77639304 74791584 72110000 69600912 67268952 
2864.006 65115436 63140364 61343584 59725188 58285592 57023924 55936072 
2867.381 55012400 54236928 53587312 53034828 52547588 52092796 51637320 
2870.757 51152724 50615952 50010644 49330596 48578240 47765520 46909504 
2874.132 46032368 45156116 44299980 43481928 42716408 42016140 41393464 
2877.507 40858524 40419656 40081548 39843680 39701264 39645900 39669064 
2880.882 39763244 39924604 40152852 40449660 40817392 41256368 41764400 
2884.258 42336872 42967164 43648704 44376048 45144720 45951696 46795236 
2887.633 47674064 48587984 49537664 50525044 51551648 52618272 53723140 
2891.008 54861244 56024236 57201804 58383976 59563256 60735992 61903304 
2894.383 63070468 64244932 65434284 66645600 67883432 69150056 70445984 
2897.759 71770688 73123256 74503016 75910800 77347480 78814272 80311432 
2901.134 81838128 83392136 84971016 86573752 88202376 89863592 91568576 
2904.509 93329976 95160920 97070832 99063296 101136968 103287072 105507856 
2907.884 107795512 110149648 112573240 115071400 117649272 120310720 
2910.777 123057888 125892240 128814456 131824520 134921600 138101280 
2913.670 141354240 144665984 148014336 151372832 154710352 157990112 
2916.563 161174688 164222512 167090448 169739584 172133328 174242752 
2919.457 176046704 177529872 178681360 179491840 179953280 180060048 
2922.350 179811632 179214768 178283136 177037424 175502016 173702080 
2925.243 171664096 169414960 166981456 164392480 161674736 158851024 
2928.136 155939488 152952192 149897232 146782864 143618240 140417280 
2931.029 137195712 133968424 130749032 127546864 124368720 121220840 
2933.922 118111104 115048944 112045112 109108080 106242616 103449000 
2936.815 100723792 98062656 95462768 92925384 90455656 88061456 85751944 
2940.190 83535888 81420840 79412064 77513136 75724736 74044728 72468240 
2943.565 70988424 69599112 68297024 67082876 65963200 64947180 64042708 
2946.941 63253648 62577016 62002168 61513356 61094884 60732452 60415892 
2950.316 60139104 59895240 59675652 59467116 59251388 59009008 58722872 
2953.691 58380488 57976080 57509368 56983608 56401928 55766696 55078748 
2957.066 54338228 53545968 52703892 51815100 50882448 49908748 48895512 
2960.442 47844752 46759404 45644300 44506240 43352480 42190608 41026484 
2963.817 39864672 38708708 37562392 36429612 35315420 34223828 33157610 
2967.192 32116942 31100190 30104492 29128078 28171462 27238962 26337186 
2970.567 25472940 24652280 23876994 23144432 22447818 21778590 21128198 
2973.943 20490902 19865084 19252842 18658966 18088352 17544360 17027444 
2977.318 16535547 16064351 15610017 15170500 14746131 14339643 13954850 
2980.693 13595423 13262290 12953989 12666648 12394873 12133286 11877747 
2984.068 11626340 11378787 11136644 10902075 10677210 10464171 10264366 
2987.444 10079167 9909403 9756343 9621190 9504942 9409075 9334183 9280460 
2991.301 9246578 9229519 9224917 9227117 9230975 9233040 9233175 9233987 
2995.158 9241467 9262960 9304867 9371458 9464134 9580574 9715647 9862931 
2999.016 10014976 10164159 10302977 10424053 10520213 10585396 10615308 
3002.391 10608076 10564448 10487524 10381870 10252153 10102906 9937879 
3005.766 9760511 9575019 9385339 9196013 9010660 8830932 8655706 8481226 
3009.624 8301987 8111681 7905295 7680222 7436761 7178209 6909712 6637915 
3013.481 6369651 6110423 5864682 5634186 5418406 5214604 5019277 4828125 
3017.339 4638766 4450293 4264344 4083859 3912343 3752725 3606096 3472208 
3021.196 3349213 3234766 3126656 3023277 2923459 2826732 2733428 2643910 
3025.053 2559711 2482126 2412618 2351682 2298649 2250786 2204193 2154641 
3028.911 2098470 2034116 1962250 1885537 1807673 1732318 1662065 1597743 
3032.768 1538883 1484154 1431826 1380534 1328916 1276142 1221546 1165694 
3036.626 1109650 1056337 1009640 973176 949499 938707 937876 941263 942725 
3040.965 935984 917821 888170 850090 808593 768693 734207 706030 683065 
3045.305 662655 641783 618589 592940 565933 539823 516568 497361 482268 
3049.645 470095 459314 449032 438949 429729 422432 417291 413543 409000 
3053.984 400576 385752 362737 332594 298308 263793 232596 206871 186120 
3058.324 168121 149791 129208 105909 81716 59579 42015 30285 23492 19019 
3063.146 14015 6428 -4241 -15904 -25512 -29919 -27334 -17958 -4605 8581 
3067.967 16467 14247 -762 -29455 -69874 -116848 -163220 -201606 -225253 
3072.307 -230982 -219159 -195049 -166201 -141359 -127547 -128474 -144407 
3076.164 -172627 -208959 -249692 -291779 -333498 -372862 -407291 -433905 
3080.022 -449363 -452110 -443239 -426589 -408284 -394314 -388885 -393123 
3083.879 -404444 -418281 -429800 -435759 -435759 -431720 -427218 -425828 
3087.737 -429767 -439333 -453302 -469321 -485407 -499671 -511553 -521713 
3091.594 -531211 -541966 -556196 -575388 -600338 -630910 -665384 -701212 
3095.451 -735978 -767831 -795680 -819856 -840790 -858151 -871279 -877893 
3099.309 -875876 -864302 -843468 -816086 -785857 -756916 -731645 -710508 
3103.166 -692479 -675508 -658338 -641431 -627072 -619164 -621745 -637560 
3107.024 -667204 -708655 -757445 -807520 -852298 -885630 -902858 -901667 
3110.881 -882588 -848759 -805337 -758636 -714444 -677129 -649206 -630844 
3114.739 -621381 -619628 -624392 -635145 -651357 -671902 -694993 -718414 
3118.596 -740576 -760488 -779308 -798723 -821113 -846742 -874156 -899419 
3122.453 -917968 -925837 -921638 -907487 -888375 -870155 -858416 -856200 
3126.311 -863211 -876801 -892144 -904908 -911256 -909041 -897766 -878554 
3130.168 -853621 -825710 -798690 -776199 -761580 -756652 -761778 -774810 
3134.026 -792439 -810629 -825842 -835631 -839665 -839401 -837846 -839235 
3137.883 -848032 -867708 -900014 -943757 -994604 -1044949 -1085835 -1109301 
3141.740 -1109863 -1087025 -1045015 -991695 -936219 -885994 -845122 -813572 
3145.598 -789065 -768096 -748945 -731910 -719340 -713452 -715503 -723905 
3149.455 -735052 -743950 -746596 -741039 -728734 -712989 -698301 -688542 
3153.313 -685598 -689667 -699194 -711533 -724467 -735416 -742495 -744215 
3157.170 -739452 -728271 -712195 -693868 -676963 -665484 -661613 -665848 
3161.028 -675872 -688178 -697573 -700385 -694960 -682290 -665881 -650960 
3164.885 -643416 -647585 -666377 -699227 -743421 -793563 -843270 -886523 
3168.742 -918662 -937442 -943361 -938864 -928053 -914529 -901667 -890921 
3172.600 -882886 -877066 -872933 -870552 -869990 -872007 -876801 -883514 
3176.457 -890590 -894790 -892409 -880075 -855406 -818401 -771139 -718248 
3180.315 -665384 -618172 -581312 -555931 -541106 -533296 -528696 -524393 
3184.172 -520157 -517708 -520919 -533196 -555170 -584521 -615922 -642788 
3188.030 -659429 -663929 -657610 -644971 -630844 -619065 -610330 -602555 
3191.887 -592496 -577275 -556857 -533792 -512148 -495832 -486731 -483388 
3195.744 -482296 -479449 -472731 -462900 -453765 -450687 -457935 -476967 
3199.602 -505066 -536440 -564733 -584124 -592595 -591437 -584984 -578367 
3203.459 -576315 -581113 -592628 -608477 -625120 -638950 -647751 -649570 
3207.317 -644045 -631837 -614036 -592496 -569531 -547724 -529258 -516285 
3211.174 -509799 -510130 -516682 -528232 -543157 -559803 -576315 -591304 
3215.031 -603647 -612249 -616584 -616749 -612746 -604937 -593455 -577903 
3218.889 -558314 -534222 -506588 -476868 -447542 -421690 -402027 -390441 
3222.746 -387098 -390408 -398055 -407059 -415335 -421790 -426821 -431091 
3226.604 -435560 -439631 -442114 -440823 -434037 -421690 -405867 -390077 
3230.461 -379053 -376438 -383423 -398419 -416659 -432912 -442114 -442015 
3234.319 -432813 -418380 -402954 -390640 -383257 -380112 -378027 -373326 
3238.176 -363195 -346741 -325486 -302971 -283667 -271514 -269031 -276316 
3242.033 -291647 -311348 -330849 -345020 -349986 -343000 -324228 -296349 
3245.891 -264792 -235022 -212469 -200116 -197400 -200944 -206144 -208628 
3249.748 -205779 -198195 -187829 -177860 -169149 -160769 -149077 -130097 
3253.606 -101974 -66726 -30184 -662 14744 13253 -1457 -20542 -32668 -28063 
3258.427 -3247 38105 86090 128711 155592 162718 152211 131827 110284 94409 
3263.249 86554 84798 84632 82213 76281 68924 63721 63356 68394 76148 82279 
3268.553 83306 78833 72271 69752 76811 95867 124403 155691 180750 192650 
3273.375 190628 179789 170508 174419 199943 248410 313594 382468 440906 
3277.715 476629 483661 463029 422730 374078 327487 290881 267109 254544 
3282.054 248476 244266 238796 231436 224541 221491 225270 237437 257395 
3286.394 282692 311273 341248 372486 406247 444057 486083 530634 573497 
3290.733 609530 633620 642679 636706 618555 593139 565469 539890 518923 
3295.073 504327 496863 497925 508275 528312 556909 590485 623698 651041 
3299.413 667434 671416 664447 651539 638664 631363 633255 645101 665609 
3303.752 692058 721861 752197 780709 804941 822369 831432 831565 825091 
3308.092 817224 814336 823166 847102 885448 932398 979253 1016249 1035944 
3312.431 1035446 1017013 986692 952620 922602 902016 893118 895342 906365 
3316.771 922967 942492 962715 982939 1003994 1027707 1057002 1094968 1143601 
3321.111 1202473 1268631 1335962 1396290 1442364 1469526 1477339 1470357 
3324.968 1457092 1447118 1448182 1464040 1493497 1530604 1566849 1594683 
3328.825 1608884 1609216 1598674 1583210 1568877 1559799 1557604 1561694 
3332.683 1569675 1579552 1590460 1602631 1617032 1633927 1651953 1668285 
3336.540 1678895 1680492 1671810 1654681 1633195 1613140 1599871 1596944 
3340.398 1605924 1626211 1656444 1694662 1739470 1789107 1841246 1892426 
3344.255 1938286 1974732 1999397 2012712 2018404 2022365 2030055 2045035 
3348.113 2066741 2090979 2110956 2120345 2115817 2098470 2074066 2051194 
3351.970 2039742 2047000 2075997 2124940 2187609 2254383 2314705 2359910 
3355.827 2384564 2387496 2372171 2345519 2315538 2288590 2268838 2256348 
3359.685 2248454 2241427 2232368 2221311 2210587 2204226 2205891 2217048 
3363.542 2236065 2258913 2280363 2296618 2306477 2310908 2312906 2314938 
3367.400 2318336 2322100 2323899 2321700 2314672 2304246 2292987 2284260 
3371.257 2280529 2282661 2290055 2301714 2316904 2335425 2358145 2386363 
3375.115 2420547 2460699 2505486 2553078 2600942 2646877 2688250 2722591 
3378.972 2747299 2760236 2760003 2746465 2720657 2684682 2640610 2590842 
3382.829 2538247 2486391 2440306 2406920 2392960 2403588 2439740 2497222 
3386.687 2566410 2634443 2690117 2725759 2740730 2740897 2736795 2739663 
3390.544 2757569 2793883 2845876 2906714 2966993 3018372 3054242 3071293 
3394.402 3068790 3049003 3016871 2979103 2945175 2924526 2924760 2949612 
3398.259 2997019 3059547 3125621 3184729 3227989 3252225 3259102 3254294 
3402.116 3244714 3235801 3230793 3230059 3232229 3235767 3239573 3243445 
3405.974 3247685 3252291 3256732 3259736 3259870 3256131 3248419 3237403 
3409.831 3224751 3212534 3203255 3199616 3204089 3218142 3241409 3271621 
3413.689 3303371 3330081 3345908 3347043 3333821 3311450 3288480 3273624 
3417.546 3273657 3290651 3321267 3357595 3389985 3410456 3414664 3403911 
3421.404 3382906 3359398 3339998 3329146 3328445 3336692 3351484 3370016 
3425.261 3390219 3410890 3430761 3449230 3464927 3476684 3483398 3485134 
3429.118 3483164 3480057 3479323 3484466 3497693 3519439 3547532 3577732 
3432.976 3603791 3620296 3622167 3608001 3578567 3538646 3494520 3453238 
3436.833 3421109 3401773 3395696 3400371 3411324 3422812 3429692 3428356 
3440.691 3416935 3395395 3365408 3329347 3290484 3252358 3218910 3193942 
3444.548 3181425 3184663 3204456 3239239 3283840 3330449 3370484 3397599 
3448.406 3409755 3409521 3402809 3396597 3396530 3405180 3420675 3438075 
3452.263 3451434 3455442 3447927 3430226 3406382 3381203 3358830 3341534 
3456.120 3328879 3319330 3310416 3300099 3287145 3270586 3249988 3224317 
3459.978 3192740 3154457 3109769 3060248 3008663 2959053 2914786 2878895 
3463.835 2852646 2835837 2826399 2821596 2818061 2812558 2802320 2786313 
3467.693 2765005 2741063 2718390 2701486 2694084 2697552 2710821 2730260 
3471.550 2750133 2764671 2769240 2761070 2740096 2708354 2669247 2626309 
3475.407 2582809 2540813 2501254 2464298 2429111 2395325 2362476 2330528 
3479.265 2300515 2273468 2250486 2232501 2219046 2208222 2197732 2184611 
3483.122 2167295 2144752 2118181 2089214 2059950 2031819 2004589 1977062 
3486.980 1946507 1909698 1864073 1808338 1742863 1670380 1595415 1524186 
3490.837 1463176 1418263 1392900 1387548 1398517 1418595 1438209 1448415 
3494.695 1441666 1414939 1369499 1311236 1247397 1186160 1134067 1094636 
3498.552 1068992 1056204 1054610 1061618 1075270 1092742 1111577 1129150 
3502.409 1142771 1149847 1148950 1138983 1119948 1092609 1059227 1022626 
3506.267 986525 955476 933560 923797 926985 940898 960457 978588 988352 
3510.606 984334 964541 929642 883024 830005 776693 729262 692921 671018 
3514.946 664182 670056 683828 698861 709116 709847 699027 677323 647192 
3519.286 610526 568156 518791 460509 392285 315683 236807 165038 111178 
3523.625 82909 83340 108361 149857 196661 239492 271651 291080 299071 299701 
3528.447 297048 294794 294097 294595 294595 291511 282493 265385 238597 
3532.787 202562 159669 114161 71310 36614 13916 4141 5003 11762 18953 22299 
3538.091 19582 10702 -3313 -21834 -44894 -73617 -108566 -149441 -193890 
3542.430 -237373 -274097 -299031 -308964 -304097 -288700 -268501 -251116 
3546.288 -241744 -243301 -255686 -276680 -303136 -331876 -360713 -387793 
3550.145 -412223 -433839 -453136 -471837 -491927 -515127 -541801 -571120 
3554.002 -600404 -626973 -648578 -664293 -674482 -680735 -684804 -687517 
3557.860 -688443 -686723 -680669 -670049 -655823 -640604 -627800 -619826 
3561.717 -616981 -617245 -618073 -615790 -609073 -598485 -587433 -580947 
3565.575 -584620 -602885 -636832 -684572 -741833 -804345 -869890 -937707 
3569.432 -1007364 -1077341 -1145092 -1207348 -1261137 -1305108 -1339661 
3572.807 -1366482 -1387390 -1403177 -1412689 -1414010 -1405852 -1389702 
3576.183 -1369884 -1353898 -1348480 -1357663 -1380024 -1410047 -1439010 
3579.558 -1458956 -1467278 -1466849 -1465825 -1472792 -1493959 -1529751 
3582.933 -1574422 -1618263 -1652064 -1669987 -1672232 -1664805 -1658039 
3586.308 -1662066 -1682002 -1714082 -1746986 -1768865 -1772297 -1758272 
3589.684 -1733389 -1705468 -1680946 -1662726 -1650513 -1641733 -1632259 
3593.059 -1618791 -1600337 -1578615 -1558014 -1543586 -1539756 -1547977 
3596.434 -1567060 -1592480 -1618131 -1637111 -1643086 -1632160 -1604662 
3599.809 -1564815 -1520606 -1481774 -1456347 -1447959 -1456281 -1476986 
3603.185 -1505285 -1537445 -1572210 -1610835 -1655497 -1708373 -1768172 
3606.560 -1830866 -1888933 -1933830 -1959295 -1963913 -1952368 -1932181 
3609.935 -1910541 -1892397 -1879300 -1870458 -1863826 -1857624 -1850926 
3613.310 -1843569 -1836343 -1830635 -1827732 -1830305 -1841292 -1863661 
3616.686 -1900215 -1950620 -2011276 -2073012 -2123661 -2153599 -2159863 
3620.061 -2148554 -2130915 -2118715 -2118616 -2131146 -2151159 -2170941 
3623.436 -2182447 -2179612 -2160753 -2128409 -2088049 -2045509 -2005142 
3626.811 -1968861 -1935974 -1906054 -1880850 -1867027 -1871811 -1898368 
3630.187 -1942440 -1995940 -2050456 -2099096 -2136850 -2161479 -2173512 
3633.562 -2176941 -2177172 -2180469 -2190722 -2208458 -2231171 -2255003 
3636.937 -2275769 -2290206 -2297094 -2297094 -2292249 -2285097 -2278076 
3640.312 -2272901 -2270199 -2270264 -2272407 -2275967 -2279856 -2283350 
3643.688 -2286217 -2288689 -2291326 -2294523 -2298775 -2303686 -2308201 
3647.063 -2311365 -2313112 -2315419 -2322703 -2338950 -2365545 -2398168 
3650.438 -2428285 -2447198 -2450855 -2440180 -2419850 -2395862 -2374278 
3653.813 -2360009 -2356450 -2364952 -2384164 -2409965 -2436885 -2460212 
3657.188 -2478069 -2490752 -2499219 -2503963 -2503864 -2496814 -2480869 
3660.564 -2455566 -2421596 -2382220 -2342114 -2305960 -2278768 -2263870 
3663.939 -2263672 -2277944 -2304806 -2340664 -2380111 -2417544 -2446143 
3667.314 -2460113 -2454182 -2425254 -2374113 -2307278 -2237401 -2178227 
3670.689 -2140048 -2125507 -2130816 -2150203 -2177666 -2207897 -2233643 
3674.065 -2246169 -2235027 -2194744 -2131805 -2064307 -2011013 -1980570 
3677.440 -1971961 -1980504 -2000360 -2027866 -2060250 -2096887 -2137113 
3680.815 -2179546 -2221314 -2257805 -2283746 -2295182 -2290667 -2272836 
3684.190 -2247949 -2224611 -2209776 -2208029 -2220160 -2242873 -2270264 
3687.566 -2295479 -2313409 -2322933 -2326394 -2327943 -2329591 -2330085 
3690.941 -2326031 -2314595 -2295479 -2270891 -2245081 -2222105 -2205919 
3694.316 -2198238 -2199853 -2209842 -2225764 -2244982 -2263771 -2279164 
3697.691 -2288755 -2290667 -2284273 -2269111 -2245806 -2215315 -2179711 
3701.067 -2142916 -2110637 -2089039 -2083334 -2096820 -2129992 -2180337 
3704.442 -2243466 -2313112 -2382944 -2446011 -2496650 -2530383 -2544119 
3707.817 -2535785 -2504787 -2451217 -2377639 -2291161 -2204733 -2135465 
3711.192 -2101338 -2112780 -2167083 -2249400 -2339675 -2419026 -2475301 
3714.568 -2503667 -2504490 -2481660 -2440740 -2387920 -2330349 -2274681 
3717.943 -2227577 -2193623 -2175326 -2171732 -2178985 -2191447 -2202524 
3721.318 -2207370 -2203315 -2191348 -2174666 -2157291 -2142422 -2131146 
3724.693 -2123661 -2120199 -2122078 -2131508 -2150236 -2177864 -2211029 
3728.069 -2244917 -2273956 -2293798 -2302565 -2300753 -2290766 -2276329 
3731.444 -2260936 -2245840 -2229786 -2209941 -2184029 -2153170 -2122210 
3734.819 -2097810 -2085675 -2086005 -2092699 -2097546 -2095271 -2085840 
3738.194 -2073474 -2064141 -2063416 -2074101 -2095568 -2124485 -2155346 
3741.570 -2184458 -2209183 -2229555 -2247389 -2263969 -2278604 -2287404 
3744.945 -2285921 -2272308 -2248180 -2216600 -2180238 -2140905 -2099953 
3748.320 -2058239 -2017510 -1980108 -1948938 -1926969 -1917534 -1922021 
3751.695 -1940559 -1970972 -2009891 -2052665 -2095930 -2136652 -2172721 
3755.071 -2203051 -2226852 -2243598 -2253520 -2257442 -2256058 -2250388 
3758.446 -2241686 -2231105 -2220655 -2213040 -2210864 -2215875 -2228270 
3761.821 -2246367 -2266902 -2286382 -2300917 -2307344 -2303785 -2290140 
3765.196 -2267990 -2239708 -2207436 -2172095 -2134212 -2095370 -2058898 
3768.572 -2030438 -2016784 -2023083 -2049104 -2089434 -2135366 -2179513 
3771.947 -2218183 -2251344 -2281273 -2310673 -2340499 -2369500 -2394577 
3775.322 -2411909 -2418730 -2413787 -2398498 -2374904 -2346003 -2314397 
3778.697 -2282163 -2251410 -2224017 -2201700 -2184952 -2173479 -2165039 
3782.073 -2156698 -2145257 -2128343 -2105889 -2079970 -2054974 -2036176 
3785.448 -2026909 -2027767 -2037001 -2051379 -2067868 -2084818 -2101503 
3788.823 -2118880 -2137245 -2156896 -2176348 -2194381 -2208919 -2218809 
3792.198 -2223655 -2223951 -2220457 -2214227 -2206084 -2197447 -2190161 
3795.573 -2186370 -2188051 -2195733 -2207469 -2219666 -2228435 -2230610 
3798.949 -2224940 -2212216 -2195568 -2180469 -2172721 -2176249 -2190623 
3802.324 -2210139 -2228632 -2241521 -2246367 -2241258 -2224479 -2193919 
3805.699 -2148752 -2091874 -2031856 -1981559 -1952566 -1950455 -1973314 
3809.074 -2014904 -2066879 -2121485 -2171765 -2211754 -2237862 -2248378 
3812.450 -2243994 -2226753 -2200150 -2168996 -2139586 -2120364 -2118715 
3815.825 -2137410 -2170446 -2205721 -2229885 -2233181 -2211754 -2165600 
3819.200 -2099458 -2022820 -1951973 -1905329 -1894904 -1917732 -1958933 
3822.575 -2001019 -2033076 -2051676 -2058799 -2058634 -2055699 -2054710 
3825.951 -2058634 -2068330 -2082839 -2099656 -2115879 -2129233 -2137971 
3829.326 -2140608 -2135960 -2124122 -2105822 -2083894 -2062592 -2047521 
3832.701 -2043036 -2051577 -2072485 -2102294 -2134311 -2159665 -2169457 
3836.076 -2156533 -2118155 -2058074 -1987332 -1921361 -1873262 -1851091 
3839.452 -1854556 -1876957 -1909749 -1946563 -1983868 -2021995 -2062757 
3842.827 -2107372 -2155082 -2202788 -2245180 -2276890 -2294688 -2296732 
3846.202 -2283844 -2258431 -2223325 -2182084 -2138136 -2095469 -2057447 
3849.577 -2026381 -2002932 -1985682 -1970411 -1950785 -1920206 -1875637 
3852.953 -1823871 -1781140 -1764410 -1778500 -1815919 -1864816 -1914961 
3856.328 -1959889 -1997094 -2027404 -2053424 -2078585 -2105130 -2132992 
3859.703 -2159533 -2179513 -2186106 -2173644 -2139323 -2085378 -2018499 
3863.078 -1949334 -1889956 -1850102 -1835254 -1844130 -1869699 -1901964 
3866.454 -1932445 -1955832 -1970213 -1977074 -1980669 -1988519 -2007945 
3869.829 -2043399 -2092138 -2145983 -2194810 -2230973 -2249762 -2248773 
3873.204 -2228270 -2192172 -2147730 -2103580 -2066780 -2040595 -2023743 
3876.579 -2013024 -2004416 -1994588 -1981395 -1964177 -1943726 -1922219 
3879.955 -1902689 -1887547 -1876858 -1868808 -1860197 -1848353 -1831658 
3883.330 -1811663 -1792228 -1780414 -1784473 -1810013 -1855380 -1910013 
3886.705 -1960483 -1995511 -2009693 -2003097 -1980306 -1948707 -1916875 
3890.080 -1894079 -1887085 -1896718 -1917831 -1942110 -1962792 -1976843 
3893.456 -1986177 -1995346 -2008176 -2026843 -2050555 -2076739 -2101404 
3896.831 -2120891 -2132366 -2134740 -2127783 -2112483 -2088972 -2057711 
3900.206 -2020049 -1979020 -1940263 -1910937 -1899094 -1910739 -1946695 
3903.581 -2001349 -2062955 -2118155 -2155973 -2172128 -2169259 -2153962 
3906.957 -2133849 -2115352 -2102624 -2096293 -2095073 -2095238 -2093919 
3910.332 -2088313 -2077431 -2061998 -2044355 -2026744 -2010914 -1997952 
3913.707 -1987068 -1976810 -1965628 -1952105 -1935776 -1917435 -1898764 
3917.082 -1881312 -1866301 -1854490 -1845515 -1839478 -1836343 -1836409 
3920.458 -1839742 -1845713 -1853665 -1862177 -1869897 -1876297 -1881708 
3923.833 -1887448 -1895696 -1907737 -1924132 -1943660 -1964474 -1984495 
3927.208 -2001910 -2015762 -2025458 -2030669 -2030669 -2024633 -2012299 
3930.583 -1994291 -1973215 -1953457 -1940361 -1938085 -1948245 -1968861 
3933.958 -1995313 -2021995 -2043992 -2058832 -2066054 -2067406 -2064834 
3937.334 -2060481 -2054677 -2046433 -2033736 -2014574 -1988057 -1954842 
3940.709 -1917468 -1879695 -1846043 -1820836 -1807109 -1806185 -1817107 
3944.084 -1837366 -1863464 -1892232 -1919745 -1943726 -1961604 -1972423 
3947.459 -1976282 -1974336 -1968564 -1961175 -1954380 -1949598 -1948212 
3950.835 -1951247 -1959328 -1971961 -1987727 -2004185 -2017510 -2024205 
3954.210 -2021434 -2008902 -1988552 -1964540 -1942901 -1928321 -1924330 
3957.585 -1931290 -1946695 -1966123 -1984033 -1995973 -1998875 -1991652 
3960.960 -1975457 -1953358 -1929344 -1907275 -1890384 -1880520 -1878112 
3964.336 -1882533 -1892397 -1906153 -1922318 -1938877 -1953919 -1965101 
3967.711 -1970477 -1968267 -1958504 -1942934 -1925418 -1911300 -1904966 
3971.086 -1909815 -1925715 -1949762 -1976546 -2000195 -2015959 -2022061 
3974.461 -2019489 -2011639 -2002536 -1995313 -1990927 -1988651 -1986243 
3977.837 -1981296 -1972126 -1958767 -1942110 -1924297 -1907638 -1895003 
3981.212 -1887943 -1887580 -1893518 -1903943 -1915621 -1924858 -1928453 
3984.587 -1924858 -1914796 -1901337 -1889131 -1882434 -1883918 -1893320 
3987.962 -1907704 -1922318 -1932676 -1936238 -1932940 -1924957 -1915621 
3991.338 -1907737 -1902129 -1897741 -1891902 -1882698 -1868874 -1851619 
3994.713 -1833110 -1816744 -1804800 -1797771 -1794438 -1792624 -1789753 
3998.088 -1784077 -1775300 -1764014 -1752200 -1741177 -1732399 
##END=
